# OpenSignals Text File Format. Version 1
# {"98:D3:81:FD:6D:86": {"position": 0, "device": "bitalino_rev", "device name": "98:D3:81:FD:6D:86", "device connection": "BTH98:D3:81:FD:6D:86", "sampling rate": 100, "resolution": [4, 1, 1, 1, 1, 10], "firmware version": 1282, "comments": "", "keywords": "", "mode": 0, "sync interval": 2, "date": "2023-9-8", "time": "10:9:38.681", "channels": [1], "sensor": ["EMGBITREV"], "label": ["A1"], "column": ["nSeq", "I1", "I2", "O1", "O2", "A1"], "special": [{}], "digital IO": [0, 0, 1, 1]}}
# EndOfHeader
0	0	0	0	0	515	
1	0	0	0	0	453	
2	0	0	0	0	539	
3	0	0	0	0	478	
4	0	0	0	0	525	
5	0	0	0	0	510	
6	0	0	0	0	457	
7	0	0	0	0	541	
8	0	0	0	0	475	
9	0	0	0	0	525	
10	0	0	0	0	510	
11	0	0	0	0	463	
12	0	0	0	0	536	
13	0	0	0	0	476	
14	0	0	0	0	522	
15	0	0	0	0	514	
0	0	0	0	0	461	
1	0	0	0	0	540	
2	0	0	0	0	475	
3	0	0	0	0	521	
4	0	0	0	0	510	
5	0	0	0	0	462	
6	0	0	0	0	537	
7	0	0	0	0	483	
8	0	0	0	0	520	
9	0	0	0	0	518	
10	0	0	0	0	461	
11	0	0	0	0	541	
12	0	0	0	0	478	
13	0	0	0	0	518	
14	0	0	0	0	512	
15	0	0	0	0	461	
0	0	0	0	0	538	
1	0	0	0	0	482	
2	0	0	0	0	517	
3	0	0	0	0	510	
4	0	0	0	0	465	
5	0	0	0	0	543	
6	0	0	0	0	480	
7	0	0	0	0	517	
8	0	0	0	0	512	
9	0	0	0	0	466	
10	0	0	0	0	538	
11	0	0	0	0	483	
12	0	0	0	0	516	
13	0	0	0	0	513	
14	0	0	0	0	458	
15	0	0	0	0	543	
0	0	0	0	0	480	
1	0	0	0	0	516	
2	0	0	0	0	515	
3	0	0	0	0	459	
4	0	0	0	0	545	
5	0	0	0	0	478	
6	0	0	0	0	515	
7	0	0	0	0	512	
8	0	0	0	0	463	
9	0	0	0	0	541	
10	0	0	0	0	481	
11	0	0	0	0	514	
12	0	0	0	0	508	
13	0	0	0	0	465	
14	0	0	0	0	539	
15	0	0	0	0	483	
0	0	0	0	0	519	
1	0	0	0	0	511	
2	0	0	0	0	462	
3	0	0	0	0	544	
4	0	0	0	0	483	
5	0	0	0	0	516	
6	0	0	0	0	513	
7	0	0	0	0	453	
8	0	0	0	0	550	
9	0	0	0	0	482	
10	0	0	0	0	513	
11	0	0	0	0	513	
12	0	0	0	0	453	
13	0	0	0	0	547	
14	0	0	0	0	483	
15	0	0	0	0	511	
0	0	0	0	0	513	
1	0	0	0	0	462	
2	0	0	0	0	545	
3	0	0	0	0	482	
4	0	0	0	0	515	
5	0	0	0	0	513	
6	0	0	0	0	464	
7	0	0	0	0	547	
8	0	0	0	0	485	
9	0	0	0	0	520	
10	0	0	0	0	515	
11	0	0	0	0	459	
12	0	0	0	0	548	
13	0	0	0	0	484	
14	0	0	0	0	515	
15	0	0	0	0	516	
0	0	0	0	0	453	
1	0	0	0	0	553	
2	0	0	0	0	485	
3	0	0	0	0	511	
4	0	0	0	0	517	
5	0	0	0	0	455	
6	0	0	0	0	550	
7	0	0	0	0	483	
8	0	0	0	0	509	
9	0	0	0	0	516	
10	0	0	0	0	455	
11	0	0	0	0	554	
12	0	0	0	0	482	
13	0	0	0	0	515	
14	0	0	0	0	522	
15	0	0	0	0	454	
0	0	0	0	0	547	
1	0	0	0	0	482	
2	0	0	0	0	515	
3	0	0	0	0	515	
4	0	0	0	0	456	
5	0	0	0	0	551	
6	0	0	0	0	485	
7	0	0	0	0	511	
8	0	0	0	0	515	
9	0	0	0	0	455	
10	0	0	0	0	555	
11	0	0	0	0	482	
12	0	0	0	0	514	
13	0	0	0	0	519	
14	0	0	0	0	457	
15	0	0	0	0	555	
0	0	0	0	0	485	
1	0	0	0	0	513	
2	0	0	0	0	517	
3	0	0	0	0	453	
4	0	0	0	0	553	
5	0	0	0	0	486	
6	0	0	0	0	511	
7	0	0	0	0	518	
8	0	0	0	0	456	
9	0	0	0	0	553	
10	0	0	0	0	484	
11	0	0	0	0	511	
12	0	0	0	0	518	
13	0	0	0	0	452	
14	0	0	0	0	554	
15	0	0	0	0	484	
0	0	0	0	0	510	
1	0	0	0	0	519	
2	0	0	0	0	451	
3	0	0	0	0	558	
4	0	0	0	0	486	
5	0	0	0	0	510	
6	0	0	0	0	515	
7	0	0	0	0	451	
8	0	0	0	0	558	
9	0	0	0	0	484	
10	0	0	0	0	508	
11	0	0	0	0	517	
12	0	0	0	0	456	
13	0	0	0	0	555	
14	0	0	0	0	487	
15	0	0	0	0	508	
0	0	0	0	0	520	
1	0	0	0	0	458	
2	0	0	0	0	556	
3	0	0	0	0	485	
4	0	0	0	0	510	
5	0	0	0	0	524	
6	0	0	0	0	450	
7	0	0	0	0	559	
8	0	0	0	0	482	
9	0	0	0	0	510	
10	0	0	0	0	522	
11	0	0	0	0	449	
12	0	0	0	0	559	
13	0	0	0	0	480	
14	0	0	0	0	510	
15	0	0	0	0	527	
0	0	0	0	0	448	
1	0	0	0	0	560	
2	0	0	0	0	486	
3	0	0	0	0	509	
4	0	0	0	0	520	
5	0	0	0	0	453	
6	0	0	0	0	559	
7	0	0	0	0	486	
8	0	0	0	0	507	
9	0	0	0	0	521	
10	0	0	0	0	451	
11	0	0	0	0	559	
12	0	0	0	0	489	
13	0	0	0	0	504	
14	0	0	0	0	519	
15	0	0	0	0	455	
0	0	0	0	0	556	
1	0	0	0	0	489	
2	0	0	0	0	505	
3	0	0	0	0	522	
4	0	0	0	0	454	
5	0	0	0	0	553	
6	0	0	0	0	489	
7	0	0	0	0	504	
8	0	0	0	0	523	
9	0	0	0	0	454	
10	0	0	0	0	555	
11	0	0	0	0	491	
12	0	0	0	0	503	
13	0	0	0	0	523	
14	0	0	0	0	452	
15	0	0	0	0	560	
0	0	0	0	0	485	
1	0	0	0	0	506	
2	0	0	0	0	526	
3	0	0	0	0	450	
4	0	0	0	0	561	
5	0	0	0	0	486	
6	0	0	0	0	508	
7	0	0	0	0	519	
8	0	0	0	0	449	
9	0	0	0	0	560	
10	0	0	0	0	488	
11	0	0	0	0	504	
12	0	0	0	0	520	
13	0	0	0	0	451	
14	0	0	0	0	562	
15	0	0	0	0	485	
0	0	0	0	0	508	
1	0	0	0	0	521	
2	0	0	0	0	450	
3	0	0	0	0	564	
4	0	0	0	0	486	
5	0	0	0	0	504	
6	0	0	0	0	526	
7	0	0	0	0	454	
8	0	0	0	0	563	
9	0	0	0	0	487	
10	0	0	0	0	503	
11	0	0	0	0	522	
12	0	0	0	0	449	
13	0	0	0	0	563	
14	0	0	0	0	489	
15	0	0	0	0	501	
0	0	0	0	0	522	
1	0	0	0	0	457	
2	0	0	0	0	560	
3	0	0	0	0	486	
4	0	0	0	0	505	
5	0	0	0	0	520	
6	0	0	0	0	454	
7	0	0	0	0	561	
8	0	0	0	0	487	
9	0	0	0	0	502	
10	0	0	0	0	521	
11	0	0	0	0	451	
12	0	0	0	0	562	
13	0	0	0	0	488	
14	0	0	0	0	501	
15	0	0	0	0	523	
0	0	0	0	0	447	
1	0	0	0	0	565	
2	0	0	0	0	489	
3	0	0	0	0	497	
4	0	0	0	0	527	
5	0	0	0	0	451	
6	0	0	0	0	560	
7	0	0	0	0	487	
8	0	0	0	0	498	
9	0	0	0	0	527	
10	0	0	0	0	451	
11	0	0	0	0	566	
12	0	0	0	0	490	
13	0	0	0	0	499	
14	0	0	0	0	526	
15	0	0	0	0	450	
0	0	0	0	0	567	
1	0	0	0	0	491	
2	0	0	0	0	497	
3	0	0	0	0	530	
4	0	0	0	0	441	
5	0	0	0	0	567	
6	0	0	0	0	491	
7	0	0	0	0	498	
8	0	0	0	0	530	
9	0	0	0	0	450	
10	0	0	0	0	567	
11	0	0	0	0	491	
12	0	0	0	0	495	
13	0	0	0	0	536	
14	0	0	0	0	449	
15	0	0	0	0	568	
0	0	0	0	0	487	
1	0	0	0	0	496	
2	0	0	0	0	534	
3	0	0	0	0	441	
4	0	0	0	0	568	
5	0	0	0	0	491	
6	0	0	0	0	494	
7	0	0	0	0	527	
8	0	0	0	0	440	
9	0	0	0	0	572	
10	0	0	0	0	491	
11	0	0	0	0	494	
12	0	0	0	0	529	
13	0	0	0	0	443	
14	0	0	0	0	566	
15	0	0	0	0	488	
0	0	0	0	0	494	
1	0	0	0	0	529	
2	0	0	0	0	442	
3	0	0	0	0	568	
4	0	0	0	0	493	
5	0	0	0	0	494	
6	0	0	0	0	527	
7	0	0	0	0	444	
8	0	0	0	0	572	
9	0	0	0	0	492	
10	0	0	0	0	494	
11	0	0	0	0	532	
12	0	0	0	0	441	
13	0	0	0	0	571	
14	0	0	0	0	492	
15	0	0	0	0	495	
0	0	0	0	0	531	
1	0	0	0	0	439	
2	0	0	0	0	575	
3	0	0	0	0	495	
4	0	0	0	0	488	
5	0	0	0	0	532	
6	0	0	0	0	443	
7	0	0	0	0	568	
8	0	0	0	0	493	
9	0	0	0	0	491	
10	0	0	0	0	530	
11	0	0	0	0	443	
12	0	0	0	0	571	
13	0	0	0	0	494	
14	0	0	0	0	492	
15	0	0	0	0	531	
0	0	0	0	0	442	
1	0	0	0	0	570	
2	0	0	0	0	494	
3	0	0	0	0	488	
4	0	0	0	0	533	
5	0	0	0	0	443	
6	0	0	0	0	571	
7	0	0	0	0	497	
8	0	0	0	0	488	
9	0	0	0	0	532	
10	0	0	0	0	441	
11	0	0	0	0	569	
12	0	0	0	0	494	
13	0	0	0	0	487	
14	0	0	0	0	534	
15	0	0	0	0	443	
0	0	0	0	0	569	
1	0	0	0	0	494	
2	0	0	0	0	487	
3	0	0	0	0	534	
4	0	0	0	0	445	
5	0	0	0	0	569	
6	0	0	0	0	493	
7	0	0	0	0	488	
8	0	0	0	0	532	
9	0	0	0	0	447	
10	0	0	0	0	570	
11	0	0	0	0	495	
12	0	0	0	0	487	
13	0	0	0	0	530	
14	0	0	0	0	444	
15	0	0	0	0	569	
0	0	0	0	0	494	
1	0	0	0	0	492	
2	0	0	0	0	531	
3	0	0	0	0	443	
4	0	0	0	0	568	
5	0	0	0	0	494	
6	0	0	0	0	488	
7	0	0	0	0	531	
8	0	0	0	0	443	
9	0	0	0	0	571	
10	0	0	0	0	492	
11	0	0	0	0	486	
12	0	0	0	0	534	
13	0	0	0	0	449	
14	0	0	0	0	571	
15	0	0	0	0	495	
0	0	0	0	0	489	
1	0	0	0	0	531	
2	0	0	0	0	446	
3	0	0	0	0	570	
4	0	0	0	0	497	
5	0	0	0	0	487	
6	0	0	0	0	532	
7	0	0	0	0	443	
8	0	0	0	0	568	
9	0	0	0	0	496	
10	0	0	0	0	487	
11	0	0	0	0	527	
12	0	0	0	0	450	
13	0	0	0	0	566	
14	0	0	0	0	496	
15	0	0	0	0	483	
0	0	0	0	0	528	
1	0	0	0	0	449	
2	0	0	0	0	563	
3	0	0	0	0	493	
4	0	0	0	0	485	
5	0	0	0	0	531	
6	0	0	0	0	451	
7	0	0	0	0	567	
8	0	0	0	0	496	
9	0	0	0	0	486	
10	0	0	0	0	531	
11	0	0	0	0	446	
12	0	0	0	0	565	
13	0	0	0	0	496	
14	0	0	0	0	481	
15	0	0	0	0	534	
0	0	0	0	0	441	
1	0	0	0	0	568	
2	0	0	0	0	500	
3	0	0	0	0	483	
4	0	0	0	0	530	
5	0	0	0	0	451	
6	0	0	0	0	566	
7	0	0	0	0	499	
8	0	0	0	0	487	
9	0	0	0	0	531	
10	0	0	0	0	448	
11	0	0	0	0	565	
12	0	0	0	0	496	
13	0	0	0	0	485	
14	0	0	0	0	532	
15	0	0	0	0	447	
0	0	0	0	0	563	
1	0	0	0	0	497	
2	0	0	0	0	483	
3	0	0	0	0	531	
4	0	0	0	0	450	
5	0	0	0	0	565	
6	0	0	0	0	498	
7	0	0	0	0	482	
8	0	0	0	0	532	
9	0	0	0	0	446	
10	0	0	0	0	568	
11	0	0	0	0	497	
12	0	0	0	0	481	
13	0	0	0	0	534	
14	0	0	0	0	445	
15	0	0	0	0	565	
0	0	0	0	0	495	
1	0	0	0	0	485	
2	0	0	0	0	532	
3	0	0	0	0	446	
4	0	0	0	0	563	
5	0	0	0	0	500	
6	0	0	0	0	482	
7	0	0	0	0	531	
8	0	0	0	0	444	
9	0	0	0	0	566	
10	0	0	0	0	500	
11	0	0	0	0	482	
12	0	0	0	0	533	
13	0	0	0	0	447	
14	0	0	0	0	565	
15	0	0	0	0	499	
0	0	0	0	0	480	
1	0	0	0	0	534	
2	0	0	0	0	444	
3	0	0	0	0	569	
4	0	0	0	0	499	
5	0	0	0	0	483	
6	0	0	0	0	532	
7	0	0	0	0	447	
8	0	0	0	0	564	
9	0	0	0	0	501	
10	0	0	0	0	483	
11	0	0	0	0	531	
12	0	0	0	0	447	
13	0	0	0	0	563	
14	0	0	0	0	499	
15	0	0	0	0	481	
0	0	0	0	0	533	
1	0	0	0	0	444	
2	0	0	0	0	568	
3	0	0	0	0	497	
4	0	0	0	0	481	
5	0	0	0	0	536	
6	0	0	0	0	448	
7	0	0	0	0	564	
8	0	0	0	0	498	
9	0	0	0	0	485	
10	0	0	0	0	533	
11	0	0	0	0	446	
12	0	0	0	0	566	
13	0	0	0	0	499	
14	0	0	0	0	478	
15	0	0	0	0	531	
0	0	0	0	0	450	
1	0	0	0	0	560	
2	0	0	0	0	497	
3	0	0	0	0	484	
4	0	0	0	0	532	
5	0	0	0	0	450	
6	0	0	0	0	560	
7	0	0	0	0	493	
8	0	0	0	0	483	
9	0	0	0	0	528	
10	0	0	0	0	456	
11	0	0	0	0	556	
12	0	0	0	0	501	
13	0	0	0	0	481	
14	0	0	0	0	535	
15	0	0	0	0	453	
0	0	0	0	0	559	
1	0	0	0	0	506	
2	0	0	0	0	477	
3	0	0	0	0	531	
4	0	0	0	0	449	
5	0	0	0	0	563	
6	0	0	0	0	504	
7	0	0	0	0	476	
8	0	0	0	0	532	
9	0	0	0	0	449	
10	0	0	0	0	566	
11	0	0	0	0	499	
12	0	0	0	0	480	
13	0	0	0	0	530	
14	0	0	0	0	450	
15	0	0	0	0	563	
0	0	0	0	0	494	
1	0	0	0	0	484	
2	0	0	0	0	518	
3	0	0	0	0	453	
4	0	0	0	0	562	
5	0	0	0	0	498	
6	0	0	0	0	482	
7	0	0	0	0	529	
8	0	0	0	0	450	
9	0	0	0	0	568	
10	0	0	0	0	503	
11	0	0	0	0	478	
12	0	0	0	0	532	
13	0	0	0	0	451	
14	0	0	0	0	569	
15	0	0	0	0	502	
0	0	0	0	0	479	
1	0	0	0	0	534	
2	0	0	0	0	447	
3	0	0	0	0	566	
4	0	0	0	0	502	
5	0	0	0	0	479	
6	0	0	0	0	531	
7	0	0	0	0	451	
8	0	0	0	0	565	
9	0	0	0	0	498	
10	0	0	0	0	481	
11	0	0	0	0	533	
12	0	0	0	0	446	
13	0	0	0	0	564	
14	0	0	0	0	503	
15	0	0	0	0	479	
0	0	0	0	0	534	
1	0	0	0	0	452	
2	0	0	0	0	567	
3	0	0	0	0	501	
4	0	0	0	0	480	
5	0	0	0	0	534	
6	0	0	0	0	450	
7	0	0	0	0	563	
8	0	0	0	0	501	
9	0	0	0	0	480	
10	0	0	0	0	535	
11	0	0	0	0	445	
12	0	0	0	0	562	
13	0	0	0	0	500	
14	0	0	0	0	480	
15	0	0	0	0	534	
0	0	0	0	0	444	
1	0	0	0	0	565	
2	0	0	0	0	497	
3	0	0	0	0	481	
4	0	0	0	0	535	
5	0	0	0	0	451	
6	0	0	0	0	567	
7	0	0	0	0	497	
8	0	0	0	0	481	
9	0	0	0	0	535	
10	0	0	0	0	447	
11	0	0	0	0	568	
12	0	0	0	0	499	
13	0	0	0	0	480	
14	0	0	0	0	536	
15	0	0	0	0	444	
0	0	0	0	0	567	
1	0	0	0	0	500	
2	0	0	0	0	480	
3	0	0	0	0	537	
4	0	0	0	0	444	
5	0	0	0	0	567	
6	0	0	0	0	496	
7	0	0	0	0	480	
8	0	0	0	0	532	
9	0	0	0	0	446	
10	0	0	0	0	565	
11	0	0	0	0	501	
12	0	0	0	0	482	
13	0	0	0	0	536	
14	0	0	0	0	447	
15	0	0	0	0	565	
0	0	0	0	0	496	
1	0	0	0	0	481	
2	0	0	0	0	536	
3	0	0	0	0	446	
4	0	0	0	0	564	
5	0	0	0	0	503	
6	0	0	0	0	480	
7	0	0	0	0	529	
8	0	0	0	0	452	
9	0	0	0	0	559	
10	0	0	0	0	502	
11	0	0	0	0	479	
12	0	0	0	0	531	
13	0	0	0	0	452	
14	0	0	0	0	562	
15	0	0	0	0	499	
0	0	0	0	0	484	
1	0	0	0	0	534	
2	0	0	0	0	450	
3	0	0	0	0	563	
4	0	0	0	0	499	
5	0	0	0	0	479	
6	0	0	0	0	532	
7	0	0	0	0	450	
8	0	0	0	0	561	
9	0	0	0	0	501	
10	0	0	0	0	483	
11	0	0	0	0	533	
12	0	0	0	0	448	
13	0	0	0	0	561	
14	0	0	0	0	500	
15	0	0	0	0	479	
0	0	0	0	0	530	
1	0	0	0	0	449	
2	0	0	0	0	563	
3	0	0	0	0	497	
4	0	0	0	0	480	
5	0	0	0	0	532	
6	0	0	0	0	452	
7	0	0	0	0	558	
8	0	0	0	0	500	
9	0	0	0	0	480	
10	0	0	0	0	535	
11	0	0	0	0	451	
12	0	0	0	0	562	
13	0	0	0	0	501	
14	0	0	0	0	479	
15	0	0	0	0	532	
0	0	0	0	0	449	
1	0	0	0	0	564	
2	0	0	0	0	500	
3	0	0	0	0	480	
4	0	0	0	0	532	
5	0	0	0	0	449	
6	0	0	0	0	559	
7	0	0	0	0	499	
8	0	0	0	0	483	
9	0	0	0	0	533	
10	0	0	0	0	450	
11	0	0	0	0	563	
12	0	0	0	0	500	
13	0	0	0	0	483	
14	0	0	0	0	531	
15	0	0	0	0	450	
0	0	0	0	0	563	
1	0	0	0	0	500	
2	0	0	0	0	484	
3	0	0	0	0	529	
4	0	0	0	0	448	
5	0	0	0	0	565	
6	0	0	0	0	501	
7	0	0	0	0	480	
8	0	0	0	0	531	
9	0	0	0	0	452	
10	0	0	0	0	562	
11	0	0	0	0	501	
12	0	0	0	0	480	
13	0	0	0	0	532	
14	0	0	0	0	455	
15	0	0	0	0	563	
0	0	0	0	0	500	
1	0	0	0	0	481	
2	0	0	0	0	530	
3	0	0	0	0	453	
4	0	0	0	0	562	
5	0	0	0	0	502	
6	0	0	0	0	481	
7	0	0	0	0	530	
8	0	0	0	0	450	
9	0	0	0	0	561	
10	0	0	0	0	502	
11	0	0	0	0	481	
12	0	0	0	0	529	
13	0	0	0	0	448	
14	0	0	0	0	562	
15	0	0	0	0	500	
0	0	0	0	0	481	
1	0	0	0	0	530	
2	0	0	0	0	450	
3	0	0	0	0	561	
4	0	0	0	0	497	
5	0	0	0	0	487	
6	0	0	0	0	528	
7	0	0	0	0	455	
8	0	0	0	0	560	
9	0	0	0	0	499	
10	0	0	0	0	486	
11	0	0	0	0	524	
12	0	0	0	0	454	
13	0	0	0	0	558	
14	0	0	0	0	497	
15	0	0	0	0	484	
0	0	0	0	0	528	
1	0	0	0	0	452	
2	0	0	0	0	560	
3	0	0	0	0	496	
4	0	0	0	0	487	
5	0	0	0	0	524	
6	0	0	0	0	456	
7	0	0	0	0	566	
8	0	0	0	0	503	
9	0	0	0	0	477	
10	0	0	0	0	535	
11	0	0	0	0	448	
12	0	0	0	0	568	
13	0	0	0	0	502	
14	0	0	0	0	477	
15	0	0	0	0	534	
0	0	0	0	0	445	
1	0	0	0	0	568	
2	0	0	0	0	505	
3	0	0	0	0	476	
4	0	0	0	0	537	
5	0	0	0	0	443	
6	0	0	0	0	570	
7	0	0	0	0	502	
8	0	0	0	0	478	
9	0	0	0	0	536	
10	0	0	0	0	443	
11	0	0	0	0	567	
12	0	0	0	0	500	
13	0	0	0	0	479	
14	0	0	0	0	537	
15	0	0	0	0	445	
0	0	0	0	0	565	
1	0	0	0	0	503	
2	0	0	0	0	477	
3	0	0	0	0	535	
4	0	0	0	0	446	
5	0	0	0	0	567	
6	0	0	0	0	501	
7	0	0	0	0	481	
8	0	0	0	0	537	
9	0	0	0	0	448	
10	0	0	0	0	561	
11	0	0	0	0	506	
12	0	0	0	0	479	
13	0	0	0	0	531	
14	0	0	0	0	449	
15	0	0	0	0	560	
0	0	0	0	0	500	
1	0	0	0	0	482	
2	0	0	0	0	531	
3	0	0	0	0	456	
4	0	0	0	0	559	
5	0	0	0	0	501	
6	0	0	0	0	485	
7	0	0	0	0	531	
8	0	0	0	0	455	
9	0	0	0	0	560	
10	0	0	0	0	500	
11	0	0	0	0	481	
12	0	0	0	0	529	
13	0	0	0	0	455	
14	0	0	0	0	558	
15	0	0	0	0	501	
0	0	0	0	0	481	
1	0	0	0	0	530	
2	0	0	0	0	456	
3	0	0	0	0	558	
4	0	0	0	0	500	
5	0	0	0	0	482	
6	0	0	0	0	530	
7	0	0	0	0	454	
8	0	0	0	0	560	
9	0	0	0	0	500	
10	0	0	0	0	482	
11	0	0	0	0	529	
12	0	0	0	0	454	
13	0	0	0	0	562	
14	0	0	0	0	500	
15	0	0	0	0	481	
0	0	0	0	0	530	
1	0	0	0	0	452	
2	0	0	0	0	560	
3	0	0	0	0	500	
4	0	0	0	0	484	
5	0	0	0	0	528	
6	0	0	0	0	451	
7	0	0	0	0	564	
8	0	0	0	0	499	
9	0	0	0	0	485	
10	0	0	0	0	531	
11	0	0	0	0	449	
12	0	0	0	0	560	
13	0	0	0	0	499	
14	0	0	0	0	483	
15	0	0	0	0	527	
0	0	0	0	0	455	
1	0	0	0	0	562	
2	0	0	0	0	499	
3	0	0	0	0	485	
4	0	0	0	0	530	
5	0	0	0	0	451	
6	0	0	0	0	562	
7	0	0	0	0	501	
8	0	0	0	0	486	
9	0	0	0	0	528	
10	0	0	0	0	450	
11	0	0	0	0	563	
12	0	0	0	0	500	
13	0	0	0	0	486	
14	0	0	0	0	529	
15	0	0	0	0	451	
0	0	0	0	0	564	
1	0	0	0	0	500	
2	0	0	0	0	486	
3	0	0	0	0	524	
4	0	0	0	0	451	
5	0	0	0	0	563	
6	0	0	0	0	500	
7	0	0	0	0	484	
8	0	0	0	0	529	
9	0	0	0	0	454	
10	0	0	0	0	561	
11	0	0	0	0	501	
12	0	0	0	0	483	
13	0	0	0	0	530	
14	0	0	0	0	454	
15	0	0	0	0	560	
0	0	0	0	0	496	
1	0	0	0	0	492	
2	0	0	0	0	530	
3	0	0	0	0	453	
4	0	0	0	0	561	
5	0	0	0	0	503	
6	0	0	0	0	484	
7	0	0	0	0	528	
8	0	0	0	0	452	
9	0	0	0	0	560	
10	0	0	0	0	499	
11	0	0	0	0	486	
12	0	0	0	0	527	
13	0	0	0	0	455	
14	0	0	0	0	559	
15	0	0	0	0	499	
0	0	0	0	0	489	
1	0	0	0	0	531	
2	0	0	0	0	455	
3	0	0	0	0	559	
4	0	0	0	0	499	
5	0	0	0	0	489	
6	0	0	0	0	531	
7	0	0	0	0	452	
8	0	0	0	0	556	
9	0	0	0	0	498	
10	0	0	0	0	487	
11	0	0	0	0	529	
12	0	0	0	0	455	
13	0	0	0	0	561	
14	0	0	0	0	502	
15	0	0	0	0	485	
0	0	0	0	0	527	
1	0	0	0	0	449	
2	0	0	0	0	561	
3	0	0	0	0	500	
4	0	0	0	0	486	
5	0	0	0	0	531	
6	0	0	0	0	452	
7	0	0	0	0	562	
8	0	0	0	0	499	
9	0	0	0	0	490	
10	0	0	0	0	528	
11	0	0	0	0	451	
12	0	0	0	0	561	
13	0	0	0	0	505	
14	0	0	0	0	489	
15	0	0	0	0	529	
0	0	0	0	0	452	
1	0	0	0	0	558	
2	0	0	0	0	501	
3	0	0	0	0	489	
4	0	0	0	0	525	
5	0	0	0	0	454	
6	0	0	0	0	556	
7	0	0	0	0	501	
8	0	0	0	0	489	
9	0	0	0	0	531	
10	0	0	0	0	454	
11	0	0	0	0	556	
12	0	0	0	0	500	
13	0	0	0	0	491	
14	0	0	0	0	529	
15	0	0	0	0	456	
0	0	0	0	0	559	
1	0	0	0	0	502	
2	0	0	0	0	489	
3	0	0	0	0	527	
4	0	0	0	0	457	
5	0	0	0	0	553	
6	0	0	0	0	496	
7	0	0	0	0	490	
8	0	0	0	0	532	
9	0	0	0	0	461	
10	0	0	0	0	554	
11	0	0	0	0	501	
12	0	0	0	0	491	
13	0	0	0	0	524	
14	0	0	0	0	458	
15	0	0	0	0	551	
0	0	0	0	0	498	
1	0	0	0	0	493	
2	0	0	0	0	524	
3	0	0	0	0	460	
4	0	0	0	0	554	
5	0	0	0	0	497	
6	0	0	0	0	493	
7	0	0	0	0	527	
8	0	0	0	0	458	
9	0	0	0	0	559	
10	0	0	0	0	495	
11	0	0	0	0	490	
12	0	0	0	0	527	
13	0	0	0	0	455	
14	0	0	0	0	555	
15	0	0	0	0	498	
0	0	0	0	0	501	
1	0	0	0	0	525	
2	0	0	0	0	455	
3	0	0	0	0	558	
4	0	0	0	0	496	
5	0	0	0	0	495	
6	0	0	0	0	526	
7	0	0	0	0	454	
8	0	0	0	0	556	
9	0	0	0	0	500	
10	0	0	0	0	493	
11	0	0	0	0	524	
12	0	0	0	0	455	
13	0	0	0	0	560	
14	0	0	0	0	499	
15	0	0	0	0	495	
0	0	0	0	0	524	
1	0	0	0	0	457	
2	0	0	0	0	556	
3	0	0	0	0	494	
4	0	0	0	0	495	
5	0	0	0	0	524	
6	0	0	0	0	456	
7	0	0	0	0	560	
8	0	0	0	0	496	
9	0	0	0	0	496	
10	0	0	0	0	524	
11	0	0	0	0	455	
12	0	0	0	0	556	
13	0	0	0	0	497	
14	0	0	0	0	499	
15	0	0	0	0	523	
0	0	0	0	0	454	
1	0	0	0	0	557	
2	0	0	0	0	497	
3	0	0	0	0	495	
4	0	0	0	0	526	
5	0	0	0	0	456	
6	0	0	0	0	559	
7	0	0	0	0	498	
8	0	0	0	0	495	
9	0	0	0	0	526	
10	0	0	0	0	452	
11	0	0	0	0	561	
12	0	0	0	0	496	
13	0	0	0	0	498	
14	0	0	0	0	528	
15	0	0	0	0	449	
0	0	0	0	0	556	
1	0	0	0	0	495	
2	0	0	0	0	497	
3	0	0	0	0	521	
4	0	0	0	0	457	
5	0	0	0	0	556	
6	0	0	0	0	496	
7	0	0	0	0	497	
8	0	0	0	0	525	
9	0	0	0	0	452	
10	0	0	0	0	557	
11	0	0	0	0	494	
12	0	0	0	0	503	
13	0	0	0	0	521	
14	0	0	0	0	451	
15	0	0	0	0	559	
0	0	0	0	0	492	
1	0	0	0	0	501	
2	0	0	0	0	524	
3	0	0	0	0	454	
4	0	0	0	0	557	
5	0	0	0	0	491	
6	0	0	0	0	504	
7	0	0	0	0	522	
8	0	0	0	0	451	
9	0	0	0	0	558	
10	0	0	0	0	491	
11	0	0	0	0	503	
12	0	0	0	0	520	
13	0	0	0	0	449	
14	0	0	0	0	561	
15	0	0	0	0	488	
0	0	0	0	0	504	
1	0	0	0	0	521	
2	0	0	0	0	453	
3	0	0	0	0	560	
4	0	0	0	0	491	
5	0	0	0	0	505	
6	0	0	0	0	523	
7	0	0	0	0	454	
8	0	0	0	0	556	
9	0	0	0	0	492	
10	0	0	0	0	505	
11	0	0	0	0	522	
12	0	0	0	0	450	
13	0	0	0	0	558	
14	0	0	0	0	487	
15	0	0	0	0	507	
0	0	0	0	0	521	
1	0	0	0	0	453	
2	0	0	0	0	563	
3	0	0	0	0	487	
4	0	0	0	0	505	
5	0	0	0	0	524	
6	0	0	0	0	451	
7	0	0	0	0	557	
8	0	0	0	0	489	
9	0	0	0	0	508	
10	0	0	0	0	525	
11	0	0	0	0	450	
12	0	0	0	0	556	
13	0	0	0	0	487	
14	0	0	0	0	505	
15	0	0	0	0	520	
0	0	0	0	0	452	
1	0	0	0	0	553	
2	0	0	0	0	492	
3	0	0	0	0	505	
4	0	0	0	0	515	
5	0	0	0	0	454	
6	0	0	0	0	555	
7	0	0	0	0	486	
8	0	0	0	0	510	
9	0	0	0	0	517	
10	0	0	0	0	458	
11	0	0	0	0	554	
12	0	0	0	0	480	
13	0	0	0	0	504	
14	0	0	0	0	517	
15	0	0	0	0	444	
0	0	0	0	0	553	
1	0	0	0	0	486	
2	0	0	0	0	508	
3	0	0	0	0	517	
4	0	0	0	0	452	
5	0	0	0	0	566	
6	0	0	0	0	486	
7	0	0	0	0	513	
8	0	0	0	0	518	
9	0	0	0	0	455	
10	0	0	0	0	555	
11	0	0	0	0	485	
12	0	0	0	0	509	
13	0	0	0	0	518	
14	0	0	0	0	443	
15	0	0	0	0	554	
0	0	0	0	0	487	
1	0	0	0	0	517	
2	0	0	0	0	514	
3	0	0	0	0	455	
4	0	0	0	0	550	
5	0	0	0	0	482	
6	0	0	0	0	509	
7	0	0	0	0	519	
8	0	0	0	0	452	
9	0	0	0	0	552	
10	0	0	0	0	482	
11	0	0	0	0	509	
12	0	0	0	0	517	
13	0	0	0	0	450	
14	0	0	0	0	555	
15	0	0	0	0	481	
0	0	0	0	0	511	
1	0	0	0	0	515	
2	0	0	0	0	454	
3	0	0	0	0	555	
4	0	0	0	0	483	
5	0	0	0	0	511	
6	0	0	0	0	516	
7	0	0	0	0	453	
8	0	0	0	0	552	
9	0	0	0	0	479	
10	0	0	0	0	518	
11	0	0	0	0	515	
12	0	0	0	0	452	
13	0	0	0	0	546	
14	0	0	0	0	480	
15	0	0	0	0	510	
0	0	0	0	0	512	
1	0	0	0	0	454	
2	0	0	0	0	557	
3	0	0	0	0	473	
4	0	0	0	0	514	
5	0	0	0	0	523	
6	0	0	0	0	452	
7	0	0	0	0	554	
8	0	0	0	0	479	
9	0	0	0	0	511	
10	0	0	0	0	512	
11	0	0	0	0	452	
12	0	0	0	0	547	
13	0	0	0	0	477	
14	0	0	0	0	519	
15	0	0	0	0	511	
0	0	0	0	0	454	
1	0	0	0	0	546	
2	0	0	0	0	477	
3	0	0	0	0	518	
4	0	0	0	0	515	
5	0	0	0	0	453	
6	0	0	0	0	550	
7	0	0	0	0	478	
8	0	0	0	0	512	
9	0	0	0	0	516	
10	0	0	0	0	460	
11	0	0	0	0	542	
12	0	0	0	0	480	
13	0	0	0	0	513	
14	0	0	0	0	512	
15	0	0	0	0	451	
0	0	0	0	0	537	
1	0	0	0	0	477	
2	0	0	0	0	535	
3	0	0	0	0	511	
4	0	0	0	0	451	
5	0	0	0	0	546	
6	0	0	0	0	478	
7	0	0	0	0	521	
8	0	0	0	0	518	
9	0	0	0	0	461	
10	0	0	0	0	544	
11	0	0	0	0	477	
12	0	0	0	0	516	
13	0	0	0	0	511	
14	0	0	0	0	450	
15	0	0	0	0	546	
0	0	0	0	0	476	
1	0	0	0	0	522	
2	0	0	0	0	512	
3	0	0	0	0	454	
4	0	0	0	0	538	
5	0	0	0	0	478	
6	0	0	0	0	519	
7	0	0	0	0	514	
8	0	0	0	0	455	
9	0	0	0	0	541	
10	0	0	0	0	477	
11	0	0	0	0	530	
12	0	0	0	0	513	
13	0	0	0	0	455	
14	0	0	0	0	540	
15	0	0	0	0	468	
0	0	0	0	0	521	
1	0	0	0	0	515	
2	0	0	0	0	454	
3	0	0	0	0	540	
4	0	0	0	0	480	
5	0	0	0	0	523	
6	0	0	0	0	507	
7	0	0	0	0	454	
8	0	0	0	0	540	
9	0	0	0	0	478	
10	0	0	0	0	524	
11	0	0	0	0	515	
12	0	0	0	0	457	
13	0	0	0	0	539	
14	0	0	0	0	475	
15	0	0	0	0	521	
0	0	0	0	0	513	
1	0	0	0	0	454	
2	0	0	0	0	539	
3	0	0	0	0	466	
4	0	0	0	0	529	
5	0	0	0	0	509	
6	0	0	0	0	452	
7	0	0	0	0	544	
8	0	0	0	0	472	
9	0	0	0	0	519	
10	0	0	0	0	508	
11	0	0	0	0	463	
12	0	0	0	0	528	
13	0	0	0	0	493	
14	0	0	0	0	533	
15	0	0	0	0	499	
0	0	0	0	0	449	
1	0	0	0	0	528	
2	0	0	0	0	500	
3	0	0	0	0	521	
4	0	0	0	0	513	
5	0	0	0	0	483	
6	0	0	0	0	551	
7	0	0	0	0	460	
8	0	0	0	0	527	
9	0	0	0	0	532	
10	0	0	0	0	431	
11	0	0	0	0	544	
12	0	0	0	0	486	
13	0	0	0	0	538	
14	0	0	0	0	554	
15	0	0	0	0	448	
0	0	0	0	0	569	
1	0	0	0	0	468	
2	0	0	0	0	517	
3	0	0	0	0	526	
4	0	0	0	0	444	
5	0	0	0	0	565	
6	0	0	0	0	447	
7	0	0	0	0	539	
8	0	0	0	0	483	
9	0	0	0	0	520	
10	0	0	0	0	486	
11	0	0	0	0	472	
12	0	0	0	0	551	
13	0	0	0	0	501	
14	0	0	0	0	488	
15	0	0	0	0	520	
0	0	0	0	0	467	
1	0	0	0	0	505	
2	0	0	0	0	623	
3	0	0	0	0	463	
4	0	0	0	0	488	
5	0	0	0	0	483	
6	0	0	0	0	550	
7	0	0	0	0	492	
8	0	0	0	0	482	
9	0	0	0	0	469	
10	0	0	0	0	548	
11	0	0	0	0	542	
12	0	0	0	0	466	
13	0	0	0	0	507	
14	0	0	0	0	514	
15	0	0	0	0	485	
0	0	0	0	0	535	
1	0	0	0	0	475	
2	0	0	0	0	545	
3	0	0	0	0	485	
4	0	0	0	0	475	
5	0	0	0	0	557	
6	0	0	0	0	471	
7	0	0	0	0	555	
8	0	0	0	0	457	
9	0	0	0	0	559	
10	0	0	0	0	488	
11	0	0	0	0	460	
12	0	0	0	0	560	
13	0	0	0	0	495	
14	0	0	0	0	480	
15	0	0	0	0	554	
0	0	0	0	0	487	
1	0	0	0	0	463	
2	0	0	0	0	525	
3	0	0	0	0	476	
4	0	0	0	0	516	
5	0	0	0	0	521	
6	0	0	0	0	537	
7	0	0	0	0	499	
8	0	0	0	0	480	
9	0	0	0	0	546	
10	0	0	0	0	497	
11	0	0	0	0	483	
12	0	0	0	0	539	
13	0	0	0	0	452	
14	0	0	0	0	543	
15	0	0	0	0	501	
0	0	0	0	0	468	
1	0	0	0	0	536	
2	0	0	0	0	459	
3	0	0	0	0	549	
4	0	0	0	0	508	
5	0	0	0	0	446	
6	0	0	0	0	549	
7	0	0	0	0	449	
8	0	0	0	0	547	
9	0	0	0	0	514	
10	0	0	0	0	465	
11	0	0	0	0	539	
12	0	0	0	0	449	
13	0	0	0	0	549	
14	0	0	0	0	513	
15	0	0	0	0	458	
0	0	0	0	0	532	
1	0	0	0	0	449	
2	0	0	0	0	549	
3	0	0	0	0	513	
4	0	0	0	0	460	
5	0	0	0	0	540	
6	0	0	0	0	453	
7	0	0	0	0	555	
8	0	0	0	0	507	
9	0	0	0	0	460	
10	0	0	0	0	538	
11	0	0	0	0	454	
12	0	0	0	0	559	
13	0	0	0	0	509	
14	0	0	0	0	466	
15	0	0	0	0	536	
0	0	0	0	0	468	
1	0	0	0	0	538	
2	0	0	0	0	495	
3	0	0	0	0	476	
4	0	0	0	0	524	
5	0	0	0	0	503	
6	0	0	0	0	543	
7	0	0	0	0	480	
8	0	0	0	0	486	
9	0	0	0	0	511	
10	0	0	0	0	488	
11	0	0	0	0	522	
12	0	0	0	0	496	
13	0	0	0	0	495	
14	0	0	0	0	519	
15	0	0	0	0	480	
0	0	0	0	0	531	
1	0	0	0	0	498	
2	0	0	0	0	503	
3	0	0	0	0	521	
4	0	0	0	0	463	
5	0	0	0	0	551	
6	0	0	0	0	488	
7	0	0	0	0	485	
8	0	0	0	0	517	
9	0	0	0	0	482	
10	0	0	0	0	534	
11	0	0	0	0	500	
12	0	0	0	0	489	
13	0	0	0	0	523	
14	0	0	0	0	459	
15	0	0	0	0	550	
0	0	0	0	0	499	
1	0	0	0	0	463	
2	0	0	0	0	556	
3	0	0	0	0	451	
4	0	0	0	0	540	
5	0	0	0	0	504	
6	0	0	0	0	476	
7	0	0	0	0	533	
8	0	0	0	0	462	
9	0	0	0	0	543	
10	0	0	0	0	500	
11	0	0	0	0	525	
12	0	0	0	0	507	
13	0	0	0	0	465	
14	0	0	0	0	535	
15	0	0	0	0	504	
0	0	0	0	0	484	
1	0	0	0	0	520	
2	0	0	0	0	470	
3	0	0	0	0	539	
4	0	0	0	0	500	
5	0	0	0	0	512	
6	0	0	0	0	514	
7	0	0	0	0	462	
8	0	0	0	0	552	
9	0	0	0	0	500	
10	0	0	0	0	485	
11	0	0	0	0	524	
12	0	0	0	0	472	
13	0	0	0	0	552	
14	0	0	0	0	494	
15	0	0	0	0	494	
0	0	0	0	0	522	
1	0	0	0	0	458	
2	0	0	0	0	558	
3	0	0	0	0	501	
4	0	0	0	0	494	
5	0	0	0	0	521	
6	0	0	0	0	462	
7	0	0	0	0	554	
8	0	0	0	0	493	
9	0	0	0	0	496	
10	0	0	0	0	518	
11	0	0	0	0	460	
12	0	0	0	0	552	
13	0	0	0	0	492	
14	0	0	0	0	502	
15	0	0	0	0	514	
0	0	0	0	0	451	
1	0	0	0	0	549	
2	0	0	0	0	491	
3	0	0	0	0	495	
4	0	0	0	0	514	
5	0	0	0	0	464	
6	0	0	0	0	550	
7	0	0	0	0	494	
8	0	0	0	0	496	
9	0	0	0	0	520	
10	0	0	0	0	456	
11	0	0	0	0	555	
12	0	0	0	0	492	
13	0	0	0	0	499	
14	0	0	0	0	520	
15	0	0	0	0	450	
0	0	0	0	0	560	
1	0	0	0	0	487	
2	0	0	0	0	502	
3	0	0	0	0	524	
4	0	0	0	0	457	
5	0	0	0	0	555	
6	0	0	0	0	489	
7	0	0	0	0	502	
8	0	0	0	0	519	
9	0	0	0	0	456	
10	0	0	0	0	557	
11	0	0	0	0	487	
12	0	0	0	0	502	
13	0	0	0	0	528	
14	0	0	0	0	452	
15	0	0	0	0	557	
0	0	0	0	0	488	
1	0	0	0	0	504	
2	0	0	0	0	520	
3	0	0	0	0	452	
4	0	0	0	0	559	
5	0	0	0	0	491	
6	0	0	0	0	503	
7	0	0	0	0	525	
8	0	0	0	0	458	
9	0	0	0	0	554	
10	0	0	0	0	489	
11	0	0	0	0	504	
12	0	0	0	0	520	
13	0	0	0	0	462	
14	0	0	0	0	552	
15	0	0	0	0	487	
0	0	0	0	0	510	
1	0	0	0	0	515	
2	0	0	0	0	456	
3	0	0	0	0	551	
4	0	0	0	0	487	
5	0	0	0	0	510	
6	0	0	0	0	519	
7	0	0	0	0	455	
8	0	0	0	0	553	
9	0	0	0	0	483	
10	0	0	0	0	510	
11	0	0	0	0	523	
12	0	0	0	0	457	
13	0	0	0	0	557	
14	0	0	0	0	489	
15	0	0	0	0	514	
0	0	0	0	0	512	
1	0	0	0	0	458	
2	0	0	0	0	553	
3	0	0	0	0	483	
4	0	0	0	0	509	
5	0	0	0	0	515	
6	0	0	0	0	460	
7	0	0	0	0	554	
8	0	0	0	0	483	
9	0	0	0	0	511	
10	0	0	0	0	517	
11	0	0	0	0	458	
12	0	0	0	0	552	
13	0	0	0	0	481	
14	0	0	0	0	512	
15	0	0	0	0	519	
0	0	0	0	0	455	
1	0	0	0	0	553	
2	0	0	0	0	483	
3	0	0	0	0	510	
4	0	0	0	0	516	
5	0	0	0	0	456	
6	0	0	0	0	551	
7	0	0	0	0	482	
8	0	0	0	0	513	
9	0	0	0	0	514	
10	0	0	0	0	456	
11	0	0	0	0	550	
12	0	0	0	0	479	
13	0	0	0	0	515	
14	0	0	0	0	514	
15	0	0	0	0	454	
0	0	0	0	0	552	
1	0	0	0	0	482	
2	0	0	0	0	518	
3	0	0	0	0	516	
4	0	0	0	0	460	
5	0	0	0	0	541	
6	0	0	0	0	472	
7	0	0	0	0	527	
8	0	0	0	0	508	
9	0	0	0	0	472	
10	0	0	0	0	536	
11	0	0	0	0	475	
12	0	0	0	0	529	
13	0	0	0	0	509	
14	0	0	0	0	474	
15	0	0	0	0	533	
0	0	0	0	0	476	
1	0	0	0	0	524	
2	0	0	0	0	503	
3	0	0	0	0	470	
4	0	0	0	0	539	
5	0	0	0	0	478	
6	0	0	0	0	525	
7	0	0	0	0	507	
8	0	0	0	0	470	
9	0	0	0	0	541	
10	0	0	0	0	474	
11	0	0	0	0	527	
12	0	0	0	0	505	
13	0	0	0	0	470	
14	0	0	0	0	532	
15	0	0	0	0	480	
0	0	0	0	0	522	
1	0	0	0	0	502	
2	0	0	0	0	471	
3	0	0	0	0	537	
4	0	0	0	0	480	
5	0	0	0	0	523	
6	0	0	0	0	510	
7	0	0	0	0	472	
8	0	0	0	0	531	
9	0	0	0	0	480	
10	0	0	0	0	522	
11	0	0	0	0	507	
12	0	0	0	0	472	
13	0	0	0	0	531	
14	0	0	0	0	480	
15	0	0	0	0	523	
0	0	0	0	0	505	
1	0	0	0	0	472	
2	0	0	0	0	533	
3	0	0	0	0	478	
4	0	0	0	0	527	
5	0	0	0	0	505	
6	0	0	0	0	472	
7	0	0	0	0	533	
8	0	0	0	0	481	
9	0	0	0	0	528	
10	0	0	0	0	499	
11	0	0	0	0	476	
12	0	0	0	0	531	
13	0	0	0	0	481	
14	0	0	0	0	524	
15	0	0	0	0	506	
0	0	0	0	0	468	
1	0	0	0	0	531	
2	0	0	0	0	480	
3	0	0	0	0	524	
4	0	0	0	0	507	
5	0	0	0	0	476	
6	0	0	0	0	530	
7	0	0	0	0	478	
8	0	0	0	0	523	
9	0	0	0	0	508	
10	0	0	0	0	470	
11	0	0	0	0	529	
12	0	0	0	0	478	
13	0	0	0	0	529	
14	0	0	0	0	504	
15	0	0	0	0	475	
0	0	0	0	0	524	
1	0	0	0	0	476	
2	0	0	0	0	534	
3	0	0	0	0	503	
4	0	0	0	0	477	
5	0	0	0	0	535	
6	0	0	0	0	468	
7	0	0	0	0	539	
8	0	0	0	0	500	
9	0	0	0	0	473	
10	0	0	0	0	531	
11	0	0	0	0	470	
12	0	0	0	0	539	
13	0	0	0	0	502	
14	0	0	0	0	478	
15	0	0	0	0	527	
0	0	0	0	0	465	
1	0	0	0	0	536	
2	0	0	0	0	500	
3	0	0	0	0	484	
4	0	0	0	0	521	
5	0	0	0	0	476	
6	0	0	0	0	534	
7	0	0	0	0	496	
8	0	0	0	0	491	
9	0	0	0	0	522	
10	0	0	0	0	477	
11	0	0	0	0	536	
12	0	0	0	0	502	
13	0	0	0	0	480	
14	0	0	0	0	529	
15	0	0	0	0	472	
0	0	0	0	0	538	
1	0	0	0	0	498	
2	0	0	0	0	484	
3	0	0	0	0	526	
4	0	0	0	0	466	
5	0	0	0	0	547	
6	0	0	0	0	500	
7	0	0	0	0	479	
8	0	0	0	0	530	
9	0	0	0	0	467	
10	0	0	0	0	542	
11	0	0	0	0	498	
12	0	0	0	0	483	
13	0	0	0	0	529	
14	0	0	0	0	466	
15	0	0	0	0	543	
0	0	0	0	0	503	
1	0	0	0	0	472	
2	0	0	0	0	536	
3	0	0	0	0	469	
4	0	0	0	0	539	
5	0	0	0	0	504	
6	0	0	0	0	470	
7	0	0	0	0	532	
8	0	0	0	0	462	
9	0	0	0	0	542	
10	0	0	0	0	503	
11	0	0	0	0	467	
12	0	0	0	0	531	
13	0	0	0	0	464	
14	0	0	0	0	539	
15	0	0	0	0	506	
0	0	0	0	0	473	
1	0	0	0	0	530	
2	0	0	0	0	465	
3	0	0	0	0	547	
4	0	0	0	0	500	
5	0	0	0	0	479	
6	0	0	0	0	526	
7	0	0	0	0	463	
8	0	0	0	0	544	
9	0	0	0	0	500	
10	0	0	0	0	484	
11	0	0	0	0	524	
12	0	0	0	0	467	
13	0	0	0	0	543	
14	0	0	0	0	492	
15	0	0	0	0	494	
0	0	0	0	0	518	
1	0	0	0	0	470	
2	0	0	0	0	546	
3	0	0	0	0	488	
4	0	0	0	0	504	
5	0	0	0	0	514	
6	0	0	0	0	472	
7	0	0	0	0	544	
8	0	0	0	0	490	
9	0	0	0	0	504	
10	0	0	0	0	520	
11	0	0	0	0	466	
12	0	0	0	0	547	
13	0	0	0	0	486	
14	0	0	0	0	502	
15	0	0	0	0	514	
0	0	0	0	0	467	
1	0	0	0	0	547	
2	0	0	0	0	492	
3	0	0	0	0	506	
4	0	0	0	0	512	
5	0	0	0	0	470	
6	0	0	0	0	540	
7	0	0	0	0	488	
8	0	0	0	0	508	
9	0	0	0	0	508	
10	0	0	0	0	470	
11	0	0	0	0	540	
12	0	0	0	0	487	
13	0	0	0	0	512	
14	0	0	0	0	513	
15	0	0	0	0	468	
0	0	0	0	0	546	
1	0	0	0	0	486	
2	0	0	0	0	509	
3	0	0	0	0	513	
4	0	0	0	0	468	
5	0	0	0	0	545	
6	0	0	0	0	489	
7	0	0	0	0	513	
8	0	0	0	0	510	
9	0	0	0	0	471	
10	0	0	0	0	545	
11	0	0	0	0	483	
12	0	0	0	0	508	
13	0	0	0	0	513	
14	0	0	0	0	467	
15	0	0	0	0	548	
0	0	0	0	0	495	
1	0	0	0	0	501	
2	0	0	0	0	519	
3	0	0	0	0	461	
4	0	0	0	0	556	
5	0	0	0	0	495	
6	0	0	0	0	497	
7	0	0	0	0	526	
8	0	0	0	0	457	
9	0	0	0	0	562	
10	0	0	0	0	492	
11	0	0	0	0	495	
12	0	0	0	0	526	
13	0	0	0	0	457	
14	0	0	0	0	560	
15	0	0	0	0	494	
0	0	0	0	0	498	
1	0	0	0	0	523	
2	0	0	0	0	453	
3	0	0	0	0	557	
4	0	0	0	0	491	
5	0	0	0	0	503	
6	0	0	0	0	519	
7	0	0	0	0	461	
8	0	0	0	0	553	
9	0	0	0	0	491	
10	0	0	0	0	502	
11	0	0	0	0	519	
12	0	0	0	0	458	
13	0	0	0	0	559	
14	0	0	0	0	490	
15	0	0	0	0	506	
0	0	0	0	0	520	
1	0	0	0	0	454	
2	0	0	0	0	556	
3	0	0	0	0	493	
4	0	0	0	0	504	
5	0	0	0	0	520	
6	0	0	0	0	455	
7	0	0	0	0	556	
8	0	0	0	0	494	
9	0	0	0	0	505	
10	0	0	0	0	522	
11	0	0	0	0	459	
12	0	0	0	0	560	
13	0	0	0	0	487	
14	0	0	0	0	507	
15	0	0	0	0	521	
0	0	0	0	0	453	
1	0	0	0	0	557	
2	0	0	0	0	490	
3	0	0	0	0	504	
4	0	0	0	0	521	
5	0	0	0	0	453	
6	0	0	0	0	549	
7	0	0	0	0	490	
8	0	0	0	0	507	
9	0	0	0	0	522	
10	0	0	0	0	451	
11	0	0	0	0	557	
12	0	0	0	0	496	
13	0	0	0	0	509	
14	0	0	0	0	520	
15	0	0	0	0	452	
0	0	0	0	0	559	
1	0	0	0	0	492	
2	0	0	0	0	508	
3	0	0	0	0	519	
4	0	0	0	0	452	
5	0	0	0	0	557	
6	0	0	0	0	489	
7	0	0	0	0	507	
8	0	0	0	0	521	
9	0	0	0	0	453	
10	0	0	0	0	554	
11	0	0	0	0	486	
12	0	0	0	0	511	
13	0	0	0	0	517	
14	0	0	0	0	453	
15	0	0	0	0	548	
0	0	0	0	0	486	
1	0	0	0	0	514	
2	0	0	0	0	518	
3	0	0	0	0	451	
4	0	0	0	0	551	
5	0	0	0	0	481	
6	0	0	0	0	511	
7	0	0	0	0	515	
8	0	0	0	0	452	
9	0	0	0	0	551	
10	0	0	0	0	478	
11	0	0	0	0	522	
12	0	0	0	0	515	
13	0	0	0	0	452	
14	0	0	0	0	546	
15	0	0	0	0	479	
0	0	0	0	0	515	
1	0	0	0	0	516	
2	0	0	0	0	451	
3	0	0	0	0	547	
4	0	0	0	0	483	
5	0	0	0	0	513	
6	0	0	0	0	515	
7	0	0	0	0	452	
8	0	0	0	0	547	
9	0	0	0	0	477	
10	0	0	0	0	520	
11	0	0	0	0	518	
12	0	0	0	0	449	
13	0	0	0	0	547	
14	0	0	0	0	476	
15	0	0	0	0	522	
0	0	0	0	0	511	
1	0	0	0	0	452	
2	0	0	0	0	547	
3	0	0	0	0	475	
4	0	0	0	0	522	
5	0	0	0	0	512	
6	0	0	0	0	449	
7	0	0	0	0	544	
8	0	0	0	0	474	
9	0	0	0	0	523	
10	0	0	0	0	522	
11	0	0	0	0	449	
12	0	0	0	0	545	
13	0	0	0	0	473	
14	0	0	0	0	527	
15	0	0	0	0	512	
0	0	0	0	0	451	
1	0	0	0	0	543	
2	0	0	0	0	473	
3	0	0	0	0	526	
4	0	0	0	0	512	
5	0	0	0	0	451	
6	0	0	0	0	545	
7	0	0	0	0	474	
8	0	0	0	0	529	
9	0	0	0	0	513	
10	0	0	0	0	448	
11	0	0	0	0	540	
12	0	0	0	0	474	
13	0	0	0	0	532	
14	0	0	0	0	515	
15	0	0	0	0	450	
0	0	0	0	0	541	
1	0	0	0	0	474	
2	0	0	0	0	533	
3	0	0	0	0	511	
4	0	0	0	0	449	
5	0	0	0	0	541	
6	0	0	0	0	470	
7	0	0	0	0	536	
8	0	0	0	0	511	
9	0	0	0	0	455	
10	0	0	0	0	547	
11	0	0	0	0	467	
12	0	0	0	0	537	
13	0	0	0	0	512	
14	0	0	0	0	458	
15	0	0	0	0	543	
0	0	0	0	0	468	
1	0	0	0	0	538	
2	0	0	0	0	512	
3	0	0	0	0	457	
4	0	0	0	0	540	
5	0	0	0	0	468	
6	0	0	0	0	539	
7	0	0	0	0	512	
8	0	0	0	0	457	
9	0	0	0	0	540	
10	0	0	0	0	463	
11	0	0	0	0	544	
12	0	0	0	0	510	
13	0	0	0	0	459	
14	0	0	0	0	536	
15	0	0	0	0	462	
0	0	0	0	0	543	
1	0	0	0	0	511	
2	0	0	0	0	463	
3	0	0	0	0	535	
4	0	0	0	0	464	
5	0	0	0	0	545	
6	0	0	0	0	506	
7	0	0	0	0	462	
8	0	0	0	0	536	
9	0	0	0	0	464	
10	0	0	0	0	547	
11	0	0	0	0	505	
12	0	0	0	0	465	
13	0	0	0	0	536	
14	0	0	0	0	457	
15	0	0	0	0	547	
0	0	0	0	0	504	
1	0	0	0	0	467	
2	0	0	0	0	538	
3	0	0	0	0	455	
4	0	0	0	0	550	
5	0	0	0	0	505	
6	0	0	0	0	466	
7	0	0	0	0	539	
8	0	0	0	0	459	
9	0	0	0	0	551	
10	0	0	0	0	507	
11	0	0	0	0	467	
12	0	0	0	0	537	
13	0	0	0	0	456	
14	0	0	0	0	551	
15	0	0	0	0	507	
0	0	0	0	0	470	
1	0	0	0	0	535	
2	0	0	0	0	455	
3	0	0	0	0	557	
4	0	0	0	0	504	
5	0	0	0	0	470	
6	0	0	0	0	538	
7	0	0	0	0	454	
8	0	0	0	0	557	
9	0	0	0	0	503	
10	0	0	0	0	475	
11	0	0	0	0	536	
12	0	0	0	0	449	
13	0	0	0	0	560	
14	0	0	0	0	500	
15	0	0	0	0	471	
0	0	0	0	0	538	
1	0	0	0	0	452	
2	0	0	0	0	560	
3	0	0	0	0	499	
4	0	0	0	0	473	
5	0	0	0	0	535	
6	0	0	0	0	452	
7	0	0	0	0	560	
8	0	0	0	0	502	
9	0	0	0	0	475	
10	0	0	0	0	534	
11	0	0	0	0	447	
12	0	0	0	0	562	
13	0	0	0	0	499	
14	0	0	0	0	478	
15	0	0	0	0	532	
0	0	0	0	0	444	
1	0	0	0	0	567	
2	0	0	0	0	497	
3	0	0	0	0	482	
4	0	0	0	0	536	
5	0	0	0	0	447	
6	0	0	0	0	566	
7	0	0	0	0	499	
8	0	0	0	0	485	
9	0	0	0	0	534	
10	0	0	0	0	450	
11	0	0	0	0	564	
12	0	0	0	0	499	
13	0	0	0	0	490	
14	0	0	0	0	526	
15	0	0	0	0	447	
0	0	0	0	0	565	
1	0	0	0	0	492	
2	0	0	0	0	487	
3	0	0	0	0	526	
4	0	0	0	0	446	
5	0	0	0	0	568	
6	0	0	0	0	494	
7	0	0	0	0	491	
8	0	0	0	0	526	
9	0	0	0	0	444	
10	0	0	0	0	566	
11	0	0	0	0	494	
12	0	0	0	0	490	
13	0	0	0	0	527	
14	0	0	0	0	451	
15	0	0	0	0	566	
0	0	0	0	0	494	
1	0	0	0	0	495	
2	0	0	0	0	528	
3	0	0	0	0	451	
4	0	0	0	0	565	
5	0	0	0	0	492	
6	0	0	0	0	498	
7	0	0	0	0	524	
8	0	0	0	0	449	
9	0	0	0	0	564	
10	0	0	0	0	492	
11	0	0	0	0	497	
12	0	0	0	0	527	
13	0	0	0	0	443	
14	0	0	0	0	564	
15	0	0	0	0	492	
0	0	0	0	0	503	
1	0	0	0	0	525	
2	0	0	0	0	448	
3	0	0	0	0	565	
4	0	0	0	0	491	
5	0	0	0	0	502	
6	0	0	0	0	526	
7	0	0	0	0	451	
8	0	0	0	0	560	
9	0	0	0	0	493	
10	0	0	0	0	502	
11	0	0	0	0	523	
12	0	0	0	0	451	
13	0	0	0	0	561	
14	0	0	0	0	492	
15	0	0	0	0	509	
0	0	0	0	0	524	
1	0	0	0	0	449	
2	0	0	0	0	563	
3	0	0	0	0	491	
4	0	0	0	0	504	
5	0	0	0	0	523	
6	0	0	0	0	449	
7	0	0	0	0	561	
8	0	0	0	0	486	
9	0	0	0	0	506	
10	0	0	0	0	527	
11	0	0	0	0	451	
12	0	0	0	0	561	
13	0	0	0	0	491	
14	0	0	0	0	507	
15	0	0	0	0	525	
0	0	0	0	0	447	
1	0	0	0	0	561	
2	0	0	0	0	488	
3	0	0	0	0	506	
4	0	0	0	0	522	
5	0	0	0	0	447	
6	0	0	0	0	561	
7	0	0	0	0	481	
8	0	0	0	0	506	
9	0	0	0	0	521	
10	0	0	0	0	450	
11	0	0	0	0	566	
12	0	0	0	0	485	
13	0	0	0	0	508	
14	0	0	0	0	524	
15	0	0	0	0	448	
0	0	0	0	0	562	
1	0	0	0	0	483	
2	0	0	0	0	511	
3	0	0	0	0	520	
4	0	0	0	0	449	
5	0	0	0	0	558	
6	0	0	0	0	486	
7	0	0	0	0	510	
8	0	0	0	0	519	
9	0	0	0	0	452	
10	0	0	0	0	555	
11	0	0	0	0	483	
12	0	0	0	0	511	
13	0	0	0	0	520	
14	0	0	0	0	452	
15	0	0	0	0	551	
0	0	0	0	0	478	
1	0	0	0	0	513	
2	0	0	0	0	513	
3	0	0	0	0	453	
4	0	0	0	0	551	
5	0	0	0	0	483	
6	0	0	0	0	512	
7	0	0	0	0	512	
8	0	0	0	0	455	
9	0	0	0	0	551	
10	0	0	0	0	480	
11	0	0	0	0	512	
12	0	0	0	0	518	
13	0	0	0	0	459	
14	0	0	0	0	548	
15	0	0	0	0	480	
0	0	0	0	0	513	
1	0	0	0	0	512	
2	0	0	0	0	459	
3	0	0	0	0	541	
4	0	0	0	0	487	
5	0	0	0	0	515	
6	0	0	0	0	507	
7	0	0	0	0	466	
8	0	0	0	0	539	
9	0	0	0	0	483	
10	0	0	0	0	519	
11	0	0	0	0	505	
12	0	0	0	0	472	
13	0	0	0	0	536	
14	0	0	0	0	481	
15	0	0	0	0	517	
0	0	0	0	0	510	
1	0	0	0	0	468	
2	0	0	0	0	531	
3	0	0	0	0	483	
4	0	0	0	0	513	
5	0	0	0	0	522	
6	0	0	0	0	475	
7	0	0	0	0	529	
8	0	0	0	0	490	
9	0	0	0	0	511	
10	0	0	0	0	509	
11	0	0	0	0	467	
12	0	0	0	0	511	
13	0	0	0	0	502	
14	0	0	0	0	505	
15	0	0	0	0	538	
0	0	0	0	0	457	
1	0	0	0	0	521	
2	0	0	0	0	480	
3	0	0	0	0	499	
4	0	0	0	0	529	
5	0	0	0	0	456	
6	0	0	0	0	553	
7	0	0	0	0	514	
8	0	0	0	0	483	
9	0	0	0	0	518	
10	0	0	0	0	469	
11	0	0	0	0	544	
12	0	0	0	0	584	
13	0	0	0	0	455	
14	0	0	0	0	489	
15	0	0	0	0	496	
0	0	0	0	0	492	
1	0	0	0	0	488	
2	0	0	0	0	504	
3	0	0	0	0	541	
4	0	0	0	0	569	
5	0	0	0	0	428	
6	0	0	0	0	549	
7	0	0	0	0	457	
8	0	0	0	0	533	
9	0	0	0	0	390	
10	0	0	0	0	572	
11	0	0	0	0	527	
12	0	0	0	0	564	
13	0	0	0	0	426	
14	0	0	0	0	464	
15	0	0	0	0	548	
0	0	0	0	0	533	
1	0	0	0	0	476	
2	0	0	0	0	611	
3	0	0	0	0	349	
4	0	0	0	0	665	
5	0	0	0	0	444	
6	0	0	0	0	503	
7	0	0	0	0	418	
8	0	0	0	0	536	
9	0	0	0	0	512	
10	0	0	0	0	468	
11	0	0	0	0	525	
12	0	0	0	0	496	
13	0	0	0	0	560	
14	0	0	0	0	532	
15	0	0	0	0	387	
0	0	0	0	0	817	
1	0	0	0	0	351	
2	0	0	0	0	453	
3	0	0	0	0	447	
4	0	0	0	0	664	
5	0	0	0	0	523	
6	0	0	0	0	436	
7	0	0	0	0	567	
8	0	0	0	0	382	
9	0	0	0	0	537	
10	0	0	0	0	505	
11	0	0	0	0	307	
12	0	0	0	0	592	
13	0	0	0	0	676	
14	0	0	0	0	318	
15	0	0	0	0	717	
0	0	0	0	0	438	
1	0	0	0	0	469	
2	0	0	0	0	533	
3	0	0	0	0	456	
4	0	0	0	0	502	
5	0	0	0	0	731	
6	0	0	0	0	350	
7	0	0	0	0	662	
8	0	0	0	0	555	
9	0	0	0	0	564	
10	0	0	0	0	476	
11	0	0	0	0	306	
12	0	0	0	0	683	
13	0	0	0	0	369	
14	0	0	0	0	490	
15	0	0	0	0	612	
0	0	0	0	0	349	
1	0	0	0	0	642	
2	0	0	0	0	312	
3	0	0	0	0	558	
4	0	0	0	0	628	
5	0	0	0	0	230	
6	0	0	0	0	716	
7	0	0	0	0	388	
8	0	0	0	0	466	
9	0	0	0	0	642	
10	0	0	0	0	420	
11	0	0	0	0	717	
12	0	0	0	0	338	
13	0	0	0	0	501	
14	0	0	0	0	598	
15	0	0	0	0	458	
0	0	0	0	0	607	
1	0	0	0	0	408	
2	0	0	0	0	441	
3	0	0	0	0	499	
4	0	0	0	0	470	
5	0	0	0	0	526	
6	0	0	0	0	511	
7	0	0	0	0	459	
8	0	0	0	0	612	
9	0	0	0	0	273	
10	0	0	0	0	633	
11	0	0	0	0	417	
12	0	0	0	0	705	
13	0	0	0	0	278	
14	0	0	0	0	461	
15	0	0	0	0	418	
0	0	0	0	0	413	
1	0	0	0	0	580	
2	0	0	0	0	538	
3	0	0	0	0	443	
4	0	0	0	0	556	
5	0	0	0	0	625	
6	0	0	0	0	450	
7	0	0	0	0	460	
8	0	0	0	0	636	
9	0	0	0	0	520	
10	0	0	0	0	285	
11	0	0	0	0	637	
12	0	0	0	0	445	
13	0	0	0	0	516	
14	0	0	0	0	641	
15	0	0	0	0	594	
0	0	0	0	0	361	
1	0	0	0	0	620	
2	0	0	0	0	636	
3	0	0	0	0	286	
4	0	0	0	0	735	
5	0	0	0	0	572	
6	0	0	0	0	322	
7	0	0	0	0	486	
8	0	0	0	0	487	
9	0	0	0	0	519	
10	0	0	0	0	678	
11	0	0	0	0	345	
12	0	0	0	0	521	
13	0	0	0	0	548	
14	0	0	0	0	580	
15	0	0	0	0	668	
0	0	0	0	0	257	
1	0	0	0	0	538	
2	0	0	0	0	797	
3	0	0	0	0	413	
4	0	0	0	0	453	
5	0	0	0	0	451	
6	0	0	0	0	500	
7	0	0	0	0	637	
8	0	0	0	0	259	
9	0	0	0	0	471	
10	0	0	0	0	331	
11	0	0	0	0	360	
12	0	0	0	0	580	
13	0	0	0	0	344	
14	0	0	0	0	611	
15	0	0	0	0	700	
0	0	0	0	0	272	
1	0	0	0	0	609	
2	0	0	0	0	238	
3	0	0	0	0	457	
4	0	0	0	0	663	
5	0	0	0	0	618	
6	0	0	0	0	288	
7	0	0	0	0	868	
8	0	0	0	0	288	
9	0	0	0	0	720	
10	0	0	0	0	471	
11	0	0	0	0	359	
12	0	0	0	0	609	
13	0	0	0	0	437	
14	0	0	0	0	614	
15	0	0	0	0	472	
0	0	0	0	0	393	
1	0	0	0	0	1022	
2	0	0	0	0	106	
3	0	0	0	0	595	
4	0	0	0	0	395	
5	0	0	0	0	641	
6	0	0	0	0	783	
7	0	0	0	0	529	
8	0	0	0	0	490	
9	0	0	0	0	465	
10	0	0	0	0	552	
11	0	0	0	0	486	
12	0	0	0	0	448	
13	0	0	0	0	372	
14	0	0	0	0	505	
15	0	0	0	0	559	
0	0	0	0	0	524	
1	0	0	0	0	343	
2	0	0	0	0	583	
3	0	0	0	0	483	
4	0	0	0	0	792	
5	0	0	0	0	476	
6	0	0	0	0	282	
7	0	0	0	0	615	
8	0	0	0	0	419	
9	0	0	0	0	463	
10	0	0	0	0	560	
11	0	0	0	0	471	
12	0	0	0	0	516	
13	0	0	0	0	676	
14	0	0	0	0	473	
15	0	0	0	0	439	
0	0	0	0	0	445	
1	0	0	0	0	501	
2	0	0	0	0	487	
3	0	0	0	0	497	
4	0	0	0	0	483	
5	0	0	0	0	552	
6	0	0	0	0	389	
7	0	0	0	0	758	
8	0	0	0	0	353	
9	0	0	0	0	464	
10	0	0	0	0	525	
11	0	0	0	0	504	
12	0	0	0	0	496	
13	0	0	0	0	515	
14	0	0	0	0	396	
15	0	0	0	0	638	
0	0	0	0	0	498	
1	0	0	0	0	478	
2	0	0	0	0	556	
3	0	0	0	0	376	
4	0	0	0	0	632	
5	0	0	0	0	465	
6	0	0	0	0	498	
7	0	0	0	0	538	
8	0	0	0	0	430	
9	0	0	0	0	616	
10	0	0	0	0	438	
11	0	0	0	0	524	
12	0	0	0	0	551	
13	0	0	0	0	388	
14	0	0	0	0	598	
15	0	0	0	0	454	
0	0	0	0	0	564	
1	0	0	0	0	512	
2	0	0	0	0	358	
3	0	0	0	0	639	
4	0	0	0	0	477	
5	0	0	0	0	494	
6	0	0	0	0	550	
7	0	0	0	0	421	
8	0	0	0	0	622	
9	0	0	0	0	501	
10	0	0	0	0	462	
11	0	0	0	0	552	
12	0	0	0	0	393	
13	0	0	0	0	640	
14	0	0	0	0	469	
15	0	0	0	0	491	
0	0	0	0	0	588	
1	0	0	0	0	313	
2	0	0	0	0	725	
3	0	0	0	0	427	
4	0	0	0	0	477	
5	0	0	0	0	555	
6	0	0	0	0	384	
7	0	0	0	0	619	
8	0	0	0	0	481	
9	0	0	0	0	474	
10	0	0	0	0	593	
11	0	0	0	0	369	
12	0	0	0	0	638	
13	0	0	0	0	471	
14	0	0	0	0	493	
15	0	0	0	0	604	
0	0	0	0	0	331	
1	0	0	0	0	654	
2	0	0	0	0	461	
3	0	0	0	0	498	
4	0	0	0	0	555	
5	0	0	0	0	340	
6	0	0	0	0	760	
7	0	0	0	0	424	
8	0	0	0	0	483	
9	0	0	0	0	545	
10	0	0	0	0	407	
11	0	0	0	0	623	
12	0	0	0	0	464	
13	0	0	0	0	502	
14	0	0	0	0	547	
15	0	0	0	0	432	
0	0	0	0	0	595	
1	0	0	0	0	478	
2	0	0	0	0	492	
3	0	0	0	0	528	
4	0	0	0	0	424	
5	0	0	0	0	587	
6	0	0	0	0	544	
7	0	0	0	0	468	
8	0	0	0	0	535	
9	0	0	0	0	485	
10	0	0	0	0	441	
11	0	0	0	0	546	
12	0	0	0	0	494	
13	0	0	0	0	495	
14	0	0	0	0	499	
15	0	0	0	0	540	
0	0	0	0	0	538	
1	0	0	0	0	465	
2	0	0	0	0	506	
3	0	0	0	0	489	
4	0	0	0	0	531	
5	0	0	0	0	496	
6	0	0	0	0	505	
7	0	0	0	0	479	
8	0	0	0	0	497	
9	0	0	0	0	509	
10	0	0	0	0	490	
11	0	0	0	0	498	
12	0	0	0	0	522	
13	0	0	0	0	478	
14	0	0	0	0	531	
15	0	0	0	0	506	
0	0	0	0	0	494	
1	0	0	0	0	506	
2	0	0	0	0	479	
3	0	0	0	0	529	
4	0	0	0	0	493	
5	0	0	0	0	496	
6	0	0	0	0	515	
7	0	0	0	0	475	
8	0	0	0	0	538	
9	0	0	0	0	504	
10	0	0	0	0	497	
11	0	0	0	0	518	
12	0	0	0	0	487	
13	0	0	0	0	533	
14	0	0	0	0	502	
15	0	0	0	0	490	
0	0	0	0	0	523	
1	0	0	0	0	476	
2	0	0	0	0	539	
3	0	0	0	0	504	
4	0	0	0	0	486	
5	0	0	0	0	525	
6	0	0	0	0	479	
7	0	0	0	0	542	
8	0	0	0	0	503	
9	0	0	0	0	481	
10	0	0	0	0	526	
11	0	0	0	0	472	
12	0	0	0	0	535	
13	0	0	0	0	514	
14	0	0	0	0	479	
15	0	0	0	0	525	
0	0	0	0	0	473	
1	0	0	0	0	545	
2	0	0	0	0	501	
3	0	0	0	0	483	
4	0	0	0	0	527	
5	0	0	0	0	465	
6	0	0	0	0	542	
7	0	0	0	0	504	
8	0	0	0	0	478	
9	0	0	0	0	524	
10	0	0	0	0	467	
11	0	0	0	0	545	
12	0	0	0	0	504	
13	0	0	0	0	476	
14	0	0	0	0	526	
15	0	0	0	0	464	
0	0	0	0	0	544	
1	0	0	0	0	506	
2	0	0	0	0	475	
3	0	0	0	0	536	
4	0	0	0	0	466	
5	0	0	0	0	544	
6	0	0	0	0	507	
7	0	0	0	0	478	
8	0	0	0	0	527	
9	0	0	0	0	465	
10	0	0	0	0	547	
11	0	0	0	0	506	
12	0	0	0	0	479	
13	0	0	0	0	527	
14	0	0	0	0	460	
15	0	0	0	0	545	
0	0	0	0	0	510	
1	0	0	0	0	475	
2	0	0	0	0	524	
3	0	0	0	0	460	
4	0	0	0	0	550	
5	0	0	0	0	507	
6	0	0	0	0	478	
7	0	0	0	0	531	
8	0	0	0	0	463	
9	0	0	0	0	554	
10	0	0	0	0	506	
11	0	0	0	0	476	
12	0	0	0	0	527	
13	0	0	0	0	464	
14	0	0	0	0	549	
15	0	0	0	0	511	
0	0	0	0	0	477	
1	0	0	0	0	528	
2	0	0	0	0	459	
3	0	0	0	0	549	
4	0	0	0	0	507	
5	0	0	0	0	473	
6	0	0	0	0	528	
7	0	0	0	0	462	
8	0	0	0	0	551	
9	0	0	0	0	507	
10	0	0	0	0	480	
11	0	0	0	0	530	
12	0	0	0	0	461	
13	0	0	0	0	551	
14	0	0	0	0	509	
15	0	0	0	0	480	
0	0	0	0	0	530	
1	0	0	0	0	460	
2	0	0	0	0	550	
3	0	0	0	0	509	
4	0	0	0	0	480	
5	0	0	0	0	528	
6	0	0	0	0	463	
7	0	0	0	0	548	
8	0	0	0	0	508	
9	0	0	0	0	479	
10	0	0	0	0	527	
11	0	0	0	0	463	
12	0	0	0	0	548	
13	0	0	0	0	510	
14	0	0	0	0	483	
15	0	0	0	0	527	
0	0	0	0	0	463	
1	0	0	0	0	551	
2	0	0	0	0	506	
3	0	0	0	0	480	
4	0	0	0	0	526	
5	0	0	0	0	464	
6	0	0	0	0	550	
7	0	0	0	0	507	
8	0	0	0	0	485	
9	0	0	0	0	521	
10	0	0	0	0	461	
11	0	0	0	0	553	
12	0	0	0	0	504	
13	0	0	0	0	480	
14	0	0	0	0	523	
15	0	0	0	0	462	
0	0	0	0	0	550	
1	0	0	0	0	508	
2	0	0	0	0	483	
3	0	0	0	0	522	
4	0	0	0	0	464	
5	0	0	0	0	555	
6	0	0	0	0	500	
7	0	0	0	0	476	
8	0	0	0	0	531	
9	0	0	0	0	455	
10	0	0	0	0	545	
11	0	0	0	0	505	
12	0	0	0	0	483	
13	0	0	0	0	528	
14	0	0	0	0	455	
15	0	0	0	0	552	
0	0	0	0	0	505	
1	0	0	0	0	480	
2	0	0	0	0	521	
3	0	0	0	0	464	
4	0	0	0	0	551	
5	0	0	0	0	501	
6	0	0	0	0	487	
7	0	0	0	0	530	
8	0	0	0	0	462	
9	0	0	0	0	548	
10	0	0	0	0	507	
11	0	0	0	0	487	
12	0	0	0	0	529	
13	0	0	0	0	459	
14	0	0	0	0	547	
15	0	0	0	0	506	
0	0	0	0	0	490	
1	0	0	0	0	530	
2	0	0	0	0	472	
3	0	0	0	0	547	
4	0	0	0	0	500	
5	0	0	0	0	480	
6	0	0	0	0	527	
7	0	0	0	0	427	
8	0	0	0	0	627	
9	0	0	0	0	472	
10	0	0	0	0	475	
11	0	0	0	0	524	
12	0	0	0	0	464	
13	0	0	0	0	558	
14	0	0	0	0	495	
15	0	0	0	0	489	
0	0	0	0	0	504	
1	0	0	0	0	504	
2	0	0	0	0	546	
3	0	0	0	0	486	
4	0	0	0	0	483	
5	0	0	0	0	521	
6	0	0	0	0	471	
7	0	0	0	0	539	
8	0	0	0	0	487	
9	0	0	0	0	538	
10	0	0	0	0	538	
11	0	0	0	0	420	
12	0	0	0	0	540	
13	0	0	0	0	500	
14	0	0	0	0	354	
15	0	0	0	0	698	
0	0	0	0	0	264	
1	0	0	0	0	713	
2	0	0	0	0	427	
3	0	0	0	0	466	
4	0	0	0	0	513	
5	0	0	0	0	403	
6	0	0	0	0	659	
7	0	0	0	0	542	
8	0	0	0	0	469	
9	0	0	0	0	538	
10	0	0	0	0	480	
11	0	0	0	0	390	
12	0	0	0	0	704	
13	0	0	0	0	397	
14	0	0	0	0	504	
15	0	0	0	0	584	
0	0	0	0	0	423	
1	0	0	0	0	553	
2	0	0	0	0	424	
3	0	0	0	0	577	
4	0	0	0	0	372	
5	0	0	0	0	597	
6	0	0	0	0	491	
7	0	0	0	0	462	
8	0	0	0	0	537	
9	0	0	0	0	560	
10	0	0	0	0	472	
11	0	0	0	0	536	
12	0	0	0	0	547	
13	0	0	0	0	391	
14	0	0	0	0	571	
15	0	0	0	0	435	
0	0	0	0	0	415	
1	0	0	0	0	569	
2	0	0	0	0	476	
3	0	0	0	0	394	
4	0	0	0	0	685	
5	0	0	0	0	429	
6	0	0	0	0	599	
7	0	0	0	0	408	
8	0	0	0	0	517	
9	0	0	0	0	689	
10	0	0	0	0	419	
11	0	0	0	0	521	
12	0	0	0	0	408	
13	0	0	0	0	482	
14	0	0	0	0	579	
15	0	0	0	0	408	
0	0	0	0	0	604	
1	0	0	0	0	450	
2	0	0	0	0	395	
3	0	0	0	0	625	
4	0	0	0	0	468	
5	0	0	0	0	502	
6	0	0	0	0	477	
7	0	0	0	0	432	
8	0	0	0	0	499	
9	0	0	0	0	615	
10	0	0	0	0	499	
11	0	0	0	0	382	
12	0	0	0	0	647	
13	0	0	0	0	473	
14	0	0	0	0	405	
15	0	0	0	0	361	
0	0	0	0	0	780	
1	0	0	0	0	60	
2	0	0	0	0	839	
3	0	0	0	0	308	
4	0	0	0	0	637	
5	0	0	0	0	405	
6	0	0	0	0	439	
7	0	0	0	0	574	
8	0	0	0	0	576	
9	0	0	0	0	526	
10	0	0	0	0	555	
11	0	0	0	0	332	
12	0	0	0	0	670	
13	0	0	0	0	443	
14	0	0	0	0	693	
15	0	0	0	0	551	
0	0	0	0	0	278	
1	0	0	0	0	747	
2	0	0	0	0	348	
3	0	0	0	0	623	
4	0	0	0	0	424	
5	0	0	0	0	416	
6	0	0	0	0	689	
7	0	0	0	0	524	
8	0	0	0	0	281	
9	0	0	0	0	797	
10	0	0	0	0	161	
11	0	0	0	0	713	
12	0	0	0	0	509	
13	0	0	0	0	426	
14	0	0	0	0	655	
15	0	0	0	0	311	
0	0	0	0	0	680	
1	0	0	0	0	417	
2	0	0	0	0	533	
3	0	0	0	0	527	
4	0	0	0	0	480	
5	0	0	0	0	720	
6	0	0	0	0	9	
7	0	0	0	0	758	
8	0	0	0	0	461	
9	0	0	0	0	541	
10	0	0	0	0	281	
11	0	0	0	0	659	
12	0	0	0	0	411	
13	0	0	0	0	688	
14	0	0	0	0	395	
15	0	0	0	0	677	
0	0	0	0	0	435	
1	0	0	0	0	603	
2	0	0	0	0	399	
3	0	0	0	0	434	
4	0	0	0	0	375	
5	0	0	0	0	763	
6	0	0	0	0	520	
7	0	0	0	0	456	
8	0	0	0	0	409	
9	0	0	0	0	822	
10	0	0	0	0	286	
11	0	0	0	0	484	
12	0	0	0	0	465	
13	0	0	0	0	508	
14	0	0	0	0	623	
15	0	0	0	0	496	
0	0	0	0	0	367	
1	0	0	0	0	812	
2	0	0	0	0	483	
3	0	0	0	0	663	
4	0	0	0	0	450	
5	0	0	0	0	622	
6	0	0	0	0	373	
7	0	0	0	0	513	
8	0	0	0	0	538	
9	0	0	0	0	665	
10	0	0	0	0	260	
11	0	0	0	0	452	
12	0	0	0	0	444	
13	0	0	0	0	723	
14	0	0	0	0	509	
15	0	0	0	0	251	
0	0	0	0	0	729	
1	0	0	0	0	492	
2	0	0	0	0	348	
3	0	0	0	0	749	
4	0	0	0	0	343	
5	0	0	0	0	408	
6	0	0	0	0	330	
7	0	0	0	0	809	
8	0	0	0	0	208	
9	0	0	0	0	499	
10	0	0	0	0	589	
11	0	0	0	0	332	
12	0	0	0	0	417	
13	0	0	0	0	474	
14	0	0	0	0	459	
15	0	0	0	0	583	
0	0	0	0	0	779	
1	0	0	0	0	244	
2	0	0	0	0	715	
3	0	0	0	0	295	
4	0	0	0	0	679	
5	0	0	0	0	466	
6	0	0	0	0	553	
7	0	0	0	0	601	
8	0	0	0	0	316	
9	0	0	0	0	752	
10	0	0	0	0	495	
11	0	0	0	0	325	
12	0	0	0	0	686	
13	0	0	0	0	449	
14	0	0	0	0	710	
15	0	0	0	0	290	
0	0	0	0	0	970	
1	0	0	0	0	327	
2	0	0	0	0	320	
3	0	0	0	0	476	
4	0	0	0	0	482	
5	0	0	0	0	419	
6	0	0	0	0	401	
7	0	0	0	0	656	
8	0	0	0	0	345	
9	0	0	0	0	562	
10	0	0	0	0	420	
11	0	0	0	0	426	
12	0	0	0	0	469	
13	0	0	0	0	454	
14	0	0	0	0	519	
15	0	0	0	0	666	
0	0	0	0	0	439	
1	0	0	0	0	462	
2	0	0	0	0	486	
3	0	0	0	0	496	
4	0	0	0	0	490	
5	0	0	0	0	587	
6	0	0	0	0	459	
7	0	0	0	0	397	
8	0	0	0	0	535	
9	0	0	0	0	529	
10	0	0	0	0	451	
11	0	0	0	0	652	
12	0	0	0	0	403	
13	0	0	0	0	499	
14	0	0	0	0	615	
15	0	0	0	0	416	
0	0	0	0	0	578	
1	0	0	0	0	424	
2	0	0	0	0	623	
3	0	0	0	0	437	
4	0	0	0	0	433	
5	0	0	0	0	539	
6	0	0	0	0	484	
7	0	0	0	0	501	
8	0	0	0	0	524	
9	0	0	0	0	468	
10	0	0	0	0	552	
11	0	0	0	0	508	
12	0	0	0	0	483	
13	0	0	0	0	514	
14	0	0	0	0	533	
15	0	0	0	0	507	
0	0	0	0	0	508	
1	0	0	0	0	485	
2	0	0	0	0	535	
3	0	0	0	0	520	
4	0	0	0	0	550	
5	0	0	0	0	552	
6	0	0	0	0	470	
7	0	0	0	0	510	
8	0	0	0	0	484	
9	0	0	0	0	520	
10	0	0	0	0	492	
11	0	0	0	0	472	
12	0	0	0	0	545	
13	0	0	0	0	460	
14	0	0	0	0	537	
15	0	0	0	0	494	
0	0	0	0	0	483	
1	0	0	0	0	527	
2	0	0	0	0	475	
3	0	0	0	0	516	
4	0	0	0	0	528	
5	0	0	0	0	405	
6	0	0	0	0	623	
7	0	0	0	0	381	
8	0	0	0	0	578	
9	0	0	0	0	531	
10	0	0	0	0	377	
11	0	0	0	0	614	
12	0	0	0	0	409	
13	0	0	0	0	586	
14	0	0	0	0	511	
15	0	0	0	0	394	
0	0	0	0	0	668	
1	0	0	0	0	382	
2	0	0	0	0	575	
3	0	0	0	0	522	
4	0	0	0	0	391	
5	0	0	0	0	605	
6	0	0	0	0	412	
7	0	0	0	0	597	
8	0	0	0	0	531	
9	0	0	0	0	359	
10	0	0	0	0	633	
11	0	0	0	0	391	
12	0	0	0	0	583	
13	0	0	0	0	515	
14	0	0	0	0	391	
15	0	0	0	0	588	
0	0	0	0	0	435	
1	0	0	0	0	589	
2	0	0	0	0	522	
3	0	0	0	0	398	
4	0	0	0	0	597	
5	0	0	0	0	401	
6	0	0	0	0	590	
7	0	0	0	0	503	
8	0	0	0	0	404	
9	0	0	0	0	578	
10	0	0	0	0	435	
11	0	0	0	0	577	
12	0	0	0	0	506	
13	0	0	0	0	401	
14	0	0	0	0	592	
15	0	0	0	0	403	
0	0	0	0	0	607	
1	0	0	0	0	562	
2	0	0	0	0	364	
3	0	0	0	0	589	
4	0	0	0	0	400	
5	0	0	0	0	593	
6	0	0	0	0	507	
7	0	0	0	0	391	
8	0	0	0	0	618	
9	0	0	0	0	420	
10	0	0	0	0	555	
11	0	0	0	0	531	
12	0	0	0	0	396	
13	0	0	0	0	583	
14	0	0	0	0	417	
15	0	0	0	0	551	
0	0	0	0	0	593	
1	0	0	0	0	399	
2	0	0	0	0	607	
3	0	0	0	0	370	
4	0	0	0	0	620	
5	0	0	0	0	498	
6	0	0	0	0	430	
7	0	0	0	0	577	
8	0	0	0	0	423	
9	0	0	0	0	585	
10	0	0	0	0	502	
11	0	0	0	0	417	
12	0	0	0	0	591	
13	0	0	0	0	387	
14	0	0	0	0	599	
15	0	0	0	0	494	
0	0	0	0	0	415	
1	0	0	0	0	581	
2	0	0	0	0	421	
3	0	0	0	0	583	
4	0	0	0	0	500	
5	0	0	0	0	518	
6	0	0	0	0	495	
7	0	0	0	0	475	
8	0	0	0	0	530	
9	0	0	0	0	494	
10	0	0	0	0	480	
11	0	0	0	0	541	
12	0	0	0	0	486	
13	0	0	0	0	525	
14	0	0	0	0	489	
15	0	0	0	0	480	
0	0	0	0	0	527	
1	0	0	0	0	478	
2	0	0	0	0	534	
3	0	0	0	0	501	
4	0	0	0	0	482	
5	0	0	0	0	528	
6	0	0	0	0	472	
7	0	0	0	0	522	
8	0	0	0	0	510	
9	0	0	0	0	468	
10	0	0	0	0	533	
11	0	0	0	0	476	
12	0	0	0	0	528	
13	0	0	0	0	508	
14	0	0	0	0	463	
15	0	0	0	0	532	
0	0	0	0	0	477	
1	0	0	0	0	522	
2	0	0	0	0	511	
3	0	0	0	0	465	
4	0	0	0	0	531	
5	0	0	0	0	482	
6	0	0	0	0	513	
7	0	0	0	0	512	
8	0	0	0	0	453	
9	0	0	0	0	533	
10	0	0	0	0	496	
11	0	0	0	0	491	
12	0	0	0	0	535	
13	0	0	0	0	472	
14	0	0	0	0	525	
15	0	0	0	0	487	
0	0	0	0	0	516	
1	0	0	0	0	521	
2	0	0	0	0	443	
3	0	0	0	0	542	
4	0	0	0	0	486	
5	0	0	0	0	511	
6	0	0	0	0	512	
7	0	0	0	0	467	
8	0	0	0	0	550	
9	0	0	0	0	477	
10	0	0	0	0	511	
11	0	0	0	0	523	
12	0	0	0	0	449	
13	0	0	0	0	536	
14	0	0	0	0	482	
15	0	0	0	0	518	
0	0	0	0	0	504	
1	0	0	0	0	471	
2	0	0	0	0	540	
3	0	0	0	0	479	
4	0	0	0	0	519	
5	0	0	0	0	518	
6	0	0	0	0	448	
7	0	0	0	0	537	
8	0	0	0	0	477	
9	0	0	0	0	530	
10	0	0	0	0	519	
11	0	0	0	0	442	
12	0	0	0	0	540	
13	0	0	0	0	479	
14	0	0	0	0	523	
15	0	0	0	0	518	
0	0	0	0	0	450	
1	0	0	0	0	542	
2	0	0	0	0	465	
3	0	0	0	0	536	
4	0	0	0	0	511	
5	0	0	0	0	452	
6	0	0	0	0	536	
7	0	0	0	0	473	
8	0	0	0	0	525	
9	0	0	0	0	515	
10	0	0	0	0	452	
11	0	0	0	0	542	
12	0	0	0	0	480	
13	0	0	0	0	519	
14	0	0	0	0	538	
15	0	0	0	0	408	
0	0	0	0	0	585	
1	0	0	0	0	458	
2	0	0	0	0	531	
3	0	0	0	0	509	
4	0	0	0	0	458	
5	0	0	0	0	543	
6	0	0	0	0	432	
7	0	0	0	0	532	
8	0	0	0	0	516	
9	0	0	0	0	435	
10	0	0	0	0	517	
11	0	0	0	0	461	
12	0	0	0	0	527	
13	0	0	0	0	504	
14	0	0	0	0	481	
15	0	0	0	0	538	
0	0	0	0	0	515	
1	0	0	0	0	508	
2	0	0	0	0	474	
3	0	0	0	0	483	
4	0	0	0	0	543	
5	0	0	0	0	423	
6	0	0	0	0	580	
7	0	0	0	0	497	
8	0	0	0	0	476	
9	0	0	0	0	519	
10	0	0	0	0	457	
11	0	0	0	0	536	
12	0	0	0	0	523	
13	0	0	0	0	475	
14	0	0	0	0	520	
15	0	0	0	0	455	
0	0	0	0	0	443	
1	0	0	0	0	543	
2	0	0	0	0	495	
3	0	0	0	0	476	
4	0	0	0	0	490	
5	0	0	0	0	558	
6	0	0	0	0	433	
7	0	0	0	0	580	
8	0	0	0	0	537	
9	0	0	0	0	434	
10	0	0	0	0	528	
11	0	0	0	0	548	
12	0	0	0	0	451	
13	0	0	0	0	469	
14	0	0	0	0	522	
15	0	0	0	0	529	
0	0	0	0	0	557	
1	0	0	0	0	462	
2	0	0	0	0	476	
3	0	0	0	0	451	
4	0	0	0	0	657	
5	0	0	0	0	419	
6	0	0	0	0	516	
7	0	0	0	0	546	
8	0	0	0	0	470	
9	0	0	0	0	554	
10	0	0	0	0	493	
11	0	0	0	0	492	
12	0	0	0	0	525	
13	0	0	0	0	458	
14	0	0	0	0	552	
15	0	0	0	0	494	
0	0	0	0	0	515	
1	0	0	0	0	505	
2	0	0	0	0	433	
3	0	0	0	0	636	
4	0	0	0	0	431	
5	0	0	0	0	533	
6	0	0	0	0	532	
7	0	0	0	0	375	
8	0	0	0	0	707	
9	0	0	0	0	426	
10	0	0	0	0	354	
11	0	0	0	0	662	
12	0	0	0	0	317	
13	0	0	0	0	591	
14	0	0	0	0	470	
15	0	0	0	0	496	
0	0	0	0	0	538	
1	0	0	0	0	517	
2	0	0	0	0	579	
3	0	0	0	0	540	
4	0	0	0	0	541	
5	0	0	0	0	463	
6	0	0	0	0	377	
7	0	0	0	0	670	
8	0	0	0	0	422	
9	0	0	0	0	519	
10	0	0	0	0	522	
11	0	0	0	0	504	
12	0	0	0	0	620	
13	0	0	0	0	536	
14	0	0	0	0	378	
15	0	0	0	0	506	
0	0	0	0	0	321	
1	0	0	0	0	671	
2	0	0	0	0	633	
3	0	0	0	0	275	
4	0	0	0	0	754	
5	0	0	0	0	283	
6	0	0	0	0	625	
7	0	0	0	0	442	
8	0	0	0	0	523	
9	0	0	0	0	572	
10	0	0	0	0	333	
11	0	0	0	0	700	
12	0	0	0	0	419	
13	0	0	0	0	520	
14	0	0	0	0	575	
15	0	0	0	0	416	
0	0	0	0	0	563	
1	0	0	0	0	475	
2	0	0	0	0	478	
3	0	0	0	0	460	
4	0	0	0	0	364	
5	0	0	0	0	829	
6	0	0	0	0	438	
7	0	0	0	0	489	
8	0	0	0	0	704	
9	0	0	0	0	267	
10	0	0	0	0	948	
11	0	0	0	0	366	
12	0	0	0	0	531	
13	0	0	0	0	316	
14	0	0	0	0	441	
15	0	0	0	0	453	
0	0	0	0	0	639	
1	0	0	0	0	561	
2	0	0	0	0	469	
3	0	0	0	0	395	
4	0	0	0	0	487	
5	0	0	0	0	932	
6	0	0	0	0	257	
7	0	0	0	0	635	
8	0	0	0	0	195	
9	0	0	0	0	493	
10	0	0	0	0	702	
11	0	0	0	0	365	
12	0	0	0	0	579	
13	0	0	0	0	457	
14	0	0	0	0	412	
15	0	0	0	0	595	
0	0	0	0	0	457	
1	0	0	0	0	566	
2	0	0	0	0	596	
3	0	0	0	0	537	
4	0	0	0	0	386	
5	0	0	0	0	429	
6	0	0	0	0	194	
7	0	0	0	0	895	
8	0	0	0	0	195	
9	0	0	0	0	743	
10	0	0	0	0	344	
11	0	0	0	0	692	
12	0	0	0	0	215	
13	0	0	0	0	521	
14	0	0	0	0	655	
15	0	0	0	0	649	
0	0	0	0	0	292	
1	0	0	0	0	505	
2	0	0	0	0	640	
3	0	0	0	0	542	
4	0	0	0	0	432	
5	0	0	0	0	463	
6	0	0	0	0	273	
7	0	0	0	0	565	
8	0	0	0	0	359	
9	0	0	0	0	363	
10	0	0	0	0	279	
11	0	0	0	0	658	
12	0	0	0	0	435	
13	0	0	0	0	759	
14	0	0	0	0	323	
15	0	0	0	0	483	
0	0	0	0	0	520	
1	0	0	0	0	340	
2	0	0	0	0	379	
3	0	0	0	0	803	
4	0	0	0	0	226	
5	0	0	0	0	949	
6	0	0	0	0	264	
7	0	0	0	0	517	
8	0	0	0	0	709	
9	0	0	0	0	327	
10	0	0	0	0	590	
11	0	0	0	0	373	
12	0	0	0	0	403	
13	0	0	0	0	825	
14	0	0	0	0	245	
15	0	0	0	0	698	
0	0	0	0	0	494	
1	0	0	0	0	455	
2	0	0	0	0	842	
3	0	0	0	0	612	
4	0	0	0	0	397	
5	0	0	0	0	438	
6	0	0	0	0	446	
7	0	0	0	0	600	
8	0	0	0	0	297	
9	0	0	0	0	657	
10	0	0	0	0	489	
11	0	0	0	0	671	
12	0	0	0	0	724	
13	0	0	0	0	278	
14	0	0	0	0	481	
15	0	0	0	0	546	
0	0	0	0	0	521	
1	0	0	0	0	462	
2	0	0	0	0	449	
3	0	0	0	0	499	
4	0	0	0	0	551	
5	0	0	0	0	427	
6	0	0	0	0	506	
7	0	0	0	0	519	
8	0	0	0	0	619	
9	0	0	0	0	502	
10	0	0	0	0	487	
11	0	0	0	0	517	
12	0	0	0	0	544	
13	0	0	0	0	397	
14	0	0	0	0	644	
15	0	0	0	0	471	
0	0	0	0	0	443	
1	0	0	0	0	564	
2	0	0	0	0	367	
3	0	0	0	0	590	
4	0	0	0	0	475	
5	0	0	0	0	587	
6	0	0	0	0	496	
7	0	0	0	0	450	
8	0	0	0	0	540	
9	0	0	0	0	533	
10	0	0	0	0	409	
11	0	0	0	0	550	
12	0	0	0	0	421	
13	0	0	0	0	541	
14	0	0	0	0	499	
15	0	0	0	0	494	
0	0	0	0	0	538	
1	0	0	0	0	545	
2	0	0	0	0	496	
3	0	0	0	0	472	
4	0	0	0	0	523	
5	0	0	0	0	512	
6	0	0	0	0	466	
7	0	0	0	0	542	
8	0	0	0	0	508	
9	0	0	0	0	506	
10	0	0	0	0	464	
11	0	0	0	0	548	
12	0	0	0	0	516	
13	0	0	0	0	440	
14	0	0	0	0	528	
15	0	0	0	0	507	
0	0	0	0	0	472	
1	0	0	0	0	555	
2	0	0	0	0	448	
3	0	0	0	0	561	
4	0	0	0	0	459	
5	0	0	0	0	516	
6	0	0	0	0	546	
7	0	0	0	0	485	
8	0	0	0	0	485	
9	0	0	0	0	534	
10	0	0	0	0	467	
11	0	0	0	0	588	
12	0	0	0	0	495	
13	0	0	0	0	482	
14	0	0	0	0	551	
15	0	0	0	0	379	
0	0	0	0	0	636	
1	0	0	0	0	464	
2	0	0	0	0	501	
3	0	0	0	0	562	
4	0	0	0	0	412	
5	0	0	0	0	604	
6	0	0	0	0	460	
7	0	0	0	0	492	
8	0	0	0	0	554	
9	0	0	0	0	351	
10	0	0	0	0	663	
11	0	0	0	0	460	
12	0	0	0	0	515	
13	0	0	0	0	565	
14	0	0	0	0	363	
15	0	0	0	0	641	
0	0	0	0	0	461	
1	0	0	0	0	487	
2	0	0	0	0	551	
3	0	0	0	0	371	
4	0	0	0	0	653	
5	0	0	0	0	463	
6	0	0	0	0	491	
7	0	0	0	0	563	
8	0	0	0	0	364	
9	0	0	0	0	642	
10	0	0	0	0	450	
11	0	0	0	0	529	
12	0	0	0	0	577	
13	0	0	0	0	354	
14	0	0	0	0	647	
15	0	0	0	0	452	
0	0	0	0	0	523	
1	0	0	0	0	546	
2	0	0	0	0	352	
3	0	0	0	0	664	
4	0	0	0	0	409	
5	0	0	0	0	589	
6	0	0	0	0	521	
7	0	0	0	0	324	
8	0	0	0	0	684	
9	0	0	0	0	449	
10	0	0	0	0	502	
11	0	0	0	0	558	
12	0	0	0	0	386	
13	0	0	0	0	640	
14	0	0	0	0	456	
15	0	0	0	0	519	
0	0	0	0	0	573	
1	0	0	0	0	350	
2	0	0	0	0	632	
3	0	0	0	0	481	
4	0	0	0	0	487	
5	0	0	0	0	553	
6	0	0	0	0	374	
7	0	0	0	0	614	
8	0	0	0	0	494	
9	0	0	0	0	487	
10	0	0	0	0	558	
11	0	0	0	0	335	
12	0	0	0	0	686	
13	0	0	0	0	427	
14	0	0	0	0	504	
15	0	0	0	0	553	
0	0	0	0	0	375	
1	0	0	0	0	632	
2	0	0	0	0	469	
3	0	0	0	0	521	
4	0	0	0	0	543	
5	0	0	0	0	386	
6	0	0	0	0	625	
7	0	0	0	0	462	
8	0	0	0	0	491	
9	0	0	0	0	595	
10	0	0	0	0	339	
11	0	0	0	0	673	
12	0	0	0	0	441	
13	0	0	0	0	496	
14	0	0	0	0	555	
15	0	0	0	0	387	
0	0	0	0	0	619	
1	0	0	0	0	467	
2	0	0	0	0	494	
3	0	0	0	0	527	
4	0	0	0	0	432	
5	0	0	0	0	571	
6	0	0	0	0	487	
7	0	0	0	0	540	
8	0	0	0	0	488	
9	0	0	0	0	484	
10	0	0	0	0	528	
11	0	0	0	0	476	
12	0	0	0	0	510	
13	0	0	0	0	453	
14	0	0	0	0	558	
15	0	0	0	0	493	
0	0	0	0	0	459	
1	0	0	0	0	499	
2	0	0	0	0	528	
3	0	0	0	0	466	
4	0	0	0	0	547	
5	0	0	0	0	465	
6	0	0	0	0	478	
7	0	0	0	0	520	
8	0	0	0	0	463	
9	0	0	0	0	548	
10	0	0	0	0	506	
11	0	0	0	0	486	
12	0	0	0	0	522	
13	0	0	0	0	460	
14	0	0	0	0	546	
15	0	0	0	0	492	
0	0	0	0	0	487	
1	0	0	0	0	522	
2	0	0	0	0	462	
3	0	0	0	0	547	
4	0	0	0	0	504	
5	0	0	0	0	487	
6	0	0	0	0	524	
7	0	0	0	0	463	
8	0	0	0	0	548	
9	0	0	0	0	502	
10	0	0	0	0	477	
11	0	0	0	0	523	
12	0	0	0	0	472	
13	0	0	0	0	551	
14	0	0	0	0	506	
15	0	0	0	0	474	
0	0	0	0	0	527	
1	0	0	0	0	467	
2	0	0	0	0	552	
3	0	0	0	0	506	
4	0	0	0	0	480	
5	0	0	0	0	527	
6	0	0	0	0	455	
7	0	0	0	0	563	
8	0	0	0	0	499	
9	0	0	0	0	477	
10	0	0	0	0	536	
11	0	0	0	0	443	
12	0	0	0	0	571	
13	0	0	0	0	507	
14	0	0	0	0	490	
15	0	0	0	0	497	
0	0	0	0	0	465	
1	0	0	0	0	575	
2	0	0	0	0	466	
3	0	0	0	0	541	
4	0	0	0	0	520	
5	0	0	0	0	439	
6	0	0	0	0	546	
7	0	0	0	0	491	
8	0	0	0	0	505	
9	0	0	0	0	501	
10	0	0	0	0	464	
11	0	0	0	0	607	
12	0	0	0	0	472	
13	0	0	0	0	455	
14	0	0	0	0	632	
15	0	0	0	0	412	
0	0	0	0	0	463	
1	0	0	0	0	680	
2	0	0	0	0	394	
3	0	0	0	0	520	
4	0	0	0	0	457	
5	0	0	0	0	547	
6	0	0	0	0	436	
7	0	0	0	0	570	
8	0	0	0	0	472	
9	0	0	0	0	458	
10	0	0	0	0	541	
11	0	0	0	0	478	
12	0	0	0	0	469	
13	0	0	0	0	592	
14	0	0	0	0	477	
15	0	0	0	0	482	
0	0	0	0	0	444	
1	0	0	0	0	577	
2	0	0	0	0	354	
3	0	0	0	0	662	
4	0	0	0	0	485	
5	0	0	0	0	484	
6	0	0	0	0	528	
7	0	0	0	0	507	
8	0	0	0	0	496	
9	0	0	0	0	508	
10	0	0	0	0	471	
11	0	0	0	0	506	
12	0	0	0	0	599	
13	0	0	0	0	375	
14	0	0	0	0	562	
15	0	0	0	0	540	
0	0	0	0	0	429	
1	0	0	0	0	553	
2	0	0	0	0	529	
3	0	0	0	0	534	
4	0	0	0	0	423	
5	0	0	0	0	561	
6	0	0	0	0	574	
7	0	0	0	0	486	
8	0	0	0	0	531	
9	0	0	0	0	385	
10	0	0	0	0	604	
11	0	0	0	0	469	
12	0	0	0	0	475	
13	0	0	0	0	641	
14	0	0	0	0	457	
15	0	0	0	0	415	
0	0	0	0	0	697	
1	0	0	0	0	393	
2	0	0	0	0	766	
3	0	0	0	0	325	
4	0	0	0	0	376	
5	0	0	0	0	688	
6	0	0	0	0	354	
7	0	0	0	0	412	
8	0	0	0	0	661	
9	0	0	0	0	442	
10	0	0	0	0	499	
11	0	0	0	0	403	
12	0	0	0	0	648	
13	0	0	0	0	308	
14	0	0	0	0	896	
15	0	0	0	0	440	
0	0	0	0	0	459	
1	0	0	0	0	463	
2	0	0	0	0	619	
3	0	0	0	0	362	
4	0	0	0	0	599	
5	0	0	0	0	272	
6	0	0	0	0	624	
7	0	0	0	0	425	
8	0	0	0	0	351	
9	0	0	0	0	725	
10	0	0	0	0	406	
11	0	0	0	0	618	
12	0	0	0	0	485	
13	0	0	0	0	505	
14	0	0	0	0	696	
15	0	0	0	0	336	
0	0	0	0	0	587	
1	0	0	0	0	391	
2	0	0	0	0	694	
3	0	0	0	0	504	
4	0	0	0	0	261	
5	0	0	0	0	849	
6	0	0	0	0	229	
7	0	0	0	0	587	
8	0	0	0	0	527	
9	0	0	0	0	398	
10	0	0	0	0	601	
11	0	0	0	0	384	
12	0	0	0	0	716	
13	0	0	0	0	539	
14	0	0	0	0	268	
15	0	0	0	0	780	
0	0	0	0	0	511	
1	0	0	0	0	616	
2	0	0	0	0	454	
3	0	0	0	0	352	
4	0	0	0	0	696	
5	0	0	0	0	149	
6	0	0	0	0	691	
7	0	0	0	0	615	
8	0	0	0	0	347	
9	0	0	0	0	728	
10	0	0	0	0	216	
11	0	0	0	0	662	
12	0	0	0	0	416	
13	0	0	0	0	607	
14	0	0	0	0	712	
15	0	0	0	0	397	
0	0	0	0	0	548	
1	0	0	0	0	316	
2	0	0	0	0	640	
3	0	0	0	0	807	
4	0	0	0	0	382	
5	0	0	0	0	472	
6	0	0	0	0	517	
7	0	0	0	0	585	
8	0	0	0	0	384	
9	0	0	0	0	346	
10	0	0	0	0	462	
11	0	0	0	0	730	
12	0	0	0	0	423	
13	0	0	0	0	534	
14	0	0	0	0	566	
15	0	0	0	0	399	
0	0	0	0	0	459	
1	0	0	0	0	647	
2	0	0	0	0	381	
3	0	0	0	0	222	
4	0	0	0	0	791	
5	0	0	0	0	217	
6	0	0	0	0	551	
7	0	0	0	0	876	
8	0	0	0	0	657	
9	0	0	0	0	286	
10	0	0	0	0	665	
11	0	0	0	0	230	
12	0	0	0	0	807	
13	0	0	0	0	302	
14	0	0	0	0	919	
15	0	0	0	0	236	
0	0	0	0	0	212	
1	0	0	0	0	540	
2	0	0	0	0	442	
3	0	0	0	0	486	
4	0	0	0	0	772	
5	0	0	0	0	517	
6	0	0	0	0	403	
7	0	0	0	0	583	
8	0	0	0	0	309	
9	0	0	0	0	658	
10	0	0	0	0	187	
11	0	0	0	0	539	
12	0	0	0	0	388	
13	0	0	0	0	610	
14	0	0	0	0	484	
15	0	0	0	0	518	
0	0	0	0	0	623	
1	0	0	0	0	919	
2	0	0	0	0	305	
3	0	0	0	0	425	
4	0	0	0	0	582	
5	0	0	0	0	741	
6	0	0	0	0	223	
7	0	0	0	0	727	
8	0	0	0	0	505	
9	0	0	0	0	394	
10	0	0	0	0	536	
11	0	0	0	0	603	
12	0	0	0	0	471	
13	0	0	0	0	449	
14	0	0	0	0	440	
15	0	0	0	0	532	
0	0	0	0	0	391	
1	0	0	0	0	487	
2	0	0	0	0	366	
3	0	0	0	0	543	
4	0	0	0	0	516	
5	0	0	0	0	604	
6	0	0	0	0	472	
7	0	0	0	0	508	
8	0	0	0	0	418	
9	0	0	0	0	662	
10	0	0	0	0	382	
11	0	0	0	0	683	
12	0	0	0	0	584	
13	0	0	0	0	430	
14	0	0	0	0	578	
15	0	0	0	0	454	
0	0	0	0	0	446	
1	0	0	0	0	743	
2	0	0	0	0	179	
3	0	0	0	0	488	
4	0	0	0	0	507	
5	0	0	0	0	531	
6	0	0	0	0	530	
7	0	0	0	0	391	
8	0	0	0	0	647	
9	0	0	0	0	506	
10	0	0	0	0	531	
11	0	0	0	0	569	
12	0	0	0	0	452	
13	0	0	0	0	547	
14	0	0	0	0	511	
15	0	0	0	0	513	
0	0	0	0	0	489	
1	0	0	0	0	466	
2	0	0	0	0	567	
3	0	0	0	0	374	
4	0	0	0	0	579	
5	0	0	0	0	506	
6	0	0	0	0	360	
7	0	0	0	0	641	
8	0	0	0	0	548	
9	0	0	0	0	485	
10	0	0	0	0	564	
11	0	0	0	0	377	
12	0	0	0	0	634	
13	0	0	0	0	427	
14	0	0	0	0	519	
15	0	0	0	0	619	
0	0	0	0	0	342	
1	0	0	0	0	632	
2	0	0	0	0	417	
3	0	0	0	0	508	
4	0	0	0	0	537	
5	0	0	0	0	371	
6	0	0	0	0	715	
7	0	0	0	0	390	
8	0	0	0	0	625	
9	0	0	0	0	489	
10	0	0	0	0	368	
11	0	0	0	0	635	
12	0	0	0	0	419	
13	0	0	0	0	538	
14	0	0	0	0	540	
15	0	0	0	0	380	
0	0	0	0	0	667	
1	0	0	0	0	416	
2	0	0	0	0	525	
3	0	0	0	0	532	
4	0	0	0	0	419	
5	0	0	0	0	601	
6	0	0	0	0	429	
7	0	0	0	0	544	
8	0	0	0	0	538	
9	0	0	0	0	352	
10	0	0	0	0	666	
11	0	0	0	0	425	
12	0	0	0	0	543	
13	0	0	0	0	593	
14	0	0	0	0	341	
15	0	0	0	0	633	
0	0	0	0	0	434	
1	0	0	0	0	545	
2	0	0	0	0	527	
3	0	0	0	0	384	
4	0	0	0	0	636	
5	0	0	0	0	423	
6	0	0	0	0	546	
7	0	0	0	0	537	
8	0	0	0	0	368	
9	0	0	0	0	638	
10	0	0	0	0	419	
11	0	0	0	0	620	
12	0	0	0	0	499	
13	0	0	0	0	363	
14	0	0	0	0	637	
15	0	0	0	0	431	
0	0	0	0	0	546	
1	0	0	0	0	535	
2	0	0	0	0	375	
3	0	0	0	0	627	
4	0	0	0	0	422	
5	0	0	0	0	592	
6	0	0	0	0	531	
7	0	0	0	0	373	
8	0	0	0	0	628	
9	0	0	0	0	420	
10	0	0	0	0	552	
11	0	0	0	0	552	
12	0	0	0	0	359	
13	0	0	0	0	636	
14	0	0	0	0	417	
15	0	0	0	0	576	
0	0	0	0	0	511	
1	0	0	0	0	354	
2	0	0	0	0	682	
3	0	0	0	0	396	
4	0	0	0	0	583	
5	0	0	0	0	529	
6	0	0	0	0	394	
7	0	0	0	0	615	
8	0	0	0	0	435	
9	0	0	0	0	465	
10	0	0	0	0	669	
11	0	0	0	0	344	
12	0	0	0	0	596	
13	0	0	0	0	438	
14	0	0	0	0	542	
15	0	0	0	0	538	
0	0	0	0	0	399	
1	0	0	0	0	597	
2	0	0	0	0	462	
3	0	0	0	0	519	
4	0	0	0	0	490	
5	0	0	0	0	517	
6	0	0	0	0	517	
7	0	0	0	0	465	
8	0	0	0	0	531	
9	0	0	0	0	496	
10	0	0	0	0	486	
11	0	0	0	0	535	
12	0	0	0	0	461	
13	0	0	0	0	536	
14	0	0	0	0	495	
15	0	0	0	0	468	
0	0	0	0	0	539	
1	0	0	0	0	481	
2	0	0	0	0	523	
3	0	0	0	0	505	
4	0	0	0	0	471	
5	0	0	0	0	545	
6	0	0	0	0	522	
7	0	0	0	0	509	
8	0	0	0	0	512	
9	0	0	0	0	456	
10	0	0	0	0	551	
11	0	0	0	0	487	
12	0	0	0	0	502	
13	0	0	0	0	553	
14	0	0	0	0	456	
15	0	0	0	0	556	
0	0	0	0	0	496	
1	0	0	0	0	505	
2	0	0	0	0	524	
3	0	0	0	0	440	
4	0	0	0	0	548	
5	0	0	0	0	497	
6	0	0	0	0	500	
7	0	0	0	0	525	
8	0	0	0	0	443	
9	0	0	0	0	551	
10	0	0	0	0	499	
11	0	0	0	0	458	
12	0	0	0	0	523	
13	0	0	0	0	452	
14	0	0	0	0	552	
15	0	0	0	0	493	
0	0	0	0	0	489	
1	0	0	0	0	510	
2	0	0	0	0	433	
3	0	0	0	0	536	
4	0	0	0	0	497	
5	0	0	0	0	487	
6	0	0	0	0	518	
7	0	0	0	0	471	
8	0	0	0	0	548	
9	0	0	0	0	487	
10	0	0	0	0	487	
11	0	0	0	0	521	
12	0	0	0	0	475	
13	0	0	0	0	555	
14	0	0	0	0	508	
15	0	0	0	0	483	
0	0	0	0	0	526	
1	0	0	0	0	458	
2	0	0	0	0	548	
3	0	0	0	0	492	
4	0	0	0	0	489	
5	0	0	0	0	520	
6	0	0	0	0	463	
7	0	0	0	0	557	
8	0	0	0	0	503	
9	0	0	0	0	493	
10	0	0	0	0	523	
11	0	0	0	0	460	
12	0	0	0	0	555	
13	0	0	0	0	501	
14	0	0	0	0	492	
15	0	0	0	0	526	
0	0	0	0	0	447	
1	0	0	0	0	564	
2	0	0	0	0	506	
3	0	0	0	0	485	
4	0	0	0	0	513	
5	0	0	0	0	436	
6	0	0	0	0	563	
7	0	0	0	0	530	
8	0	0	0	0	492	
9	0	0	0	0	580	
10	0	0	0	0	429	
11	0	0	0	0	577	
12	0	0	0	0	447	
13	0	0	0	0	504	
14	0	0	0	0	505	
15	0	0	0	0	492	
0	0	0	0	0	431	
1	0	0	0	0	660	
2	0	0	0	0	441	
3	0	0	0	0	505	
4	0	0	0	0	493	
5	0	0	0	0	505	
6	0	0	0	0	489	
7	0	0	0	0	498	
8	0	0	0	0	425	
9	0	0	0	0	638	
10	0	0	0	0	418	
11	0	0	0	0	514	
12	0	0	0	0	547	
13	0	0	0	0	482	
14	0	0	0	0	497	
15	0	0	0	0	483	
0	0	0	0	0	555	
1	0	0	0	0	468	
2	0	0	0	0	558	
3	0	0	0	0	473	
4	0	0	0	0	523	
5	0	0	0	0	499	
6	0	0	0	0	542	
7	0	0	0	0	408	
8	0	0	0	0	628	
9	0	0	0	0	456	
10	0	0	0	0	452	
11	0	0	0	0	574	
12	0	0	0	0	491	
13	0	0	0	0	499	
14	0	0	0	0	507	
15	0	0	0	0	559	
0	0	0	0	0	435	
1	0	0	0	0	564	
2	0	0	0	0	429	
3	0	0	0	0	488	
4	0	0	0	0	516	
5	0	0	0	0	623	
6	0	0	0	0	355	
7	0	0	0	0	573	
8	0	0	0	0	482	
9	0	0	0	0	389	
10	0	0	0	0	585	
11	0	0	0	0	595	
12	0	0	0	0	404	
13	0	0	0	0	476	
14	0	0	0	0	553	
15	0	0	0	0	486	
0	0	0	0	0	559	
1	0	0	0	0	372	
2	0	0	0	0	546	
3	0	0	0	0	518	
4	0	0	0	0	453	
5	0	0	0	0	645	
6	0	0	0	0	353	
7	0	0	0	0	682	
8	0	0	0	0	425	
9	0	0	0	0	525	
10	0	0	0	0	563	
11	0	0	0	0	368	
12	0	0	0	0	591	
13	0	0	0	0	511	
14	0	0	0	0	472	
15	0	0	0	0	455	
0	0	0	0	0	484	
1	0	0	0	0	584	
2	0	0	0	0	416	
3	0	0	0	0	546	
4	0	0	0	0	568	
5	0	0	0	0	370	
6	0	0	0	0	572	
7	0	0	0	0	503	
8	0	0	0	0	513	
9	0	0	0	0	625	
10	0	0	0	0	278	
11	0	0	0	0	608	
12	0	0	0	0	460	
13	0	0	0	0	467	
14	0	0	0	0	503	
15	0	0	0	0	473	
0	0	0	0	0	385	
1	0	0	0	0	639	
2	0	0	0	0	459	
3	0	0	0	0	549	
4	0	0	0	0	440	
5	0	0	0	0	543	
6	0	0	0	0	417	
7	0	0	0	0	690	
8	0	0	0	0	675	
9	0	0	0	0	407	
10	0	0	0	0	557	
11	0	0	0	0	440	
12	0	0	0	0	534	
13	0	0	0	0	552	
14	0	0	0	0	435	
15	0	0	0	0	515	
0	0	0	0	0	560	
1	0	0	0	0	391	
2	0	0	0	0	499	
3	0	0	0	0	539	
4	0	0	0	0	519	
5	0	0	0	0	358	
6	0	0	0	0	469	
7	0	0	0	0	578	
8	0	0	0	0	446	
9	0	0	0	0	416	
10	0	0	0	0	446	
11	0	0	0	0	745	
12	0	0	0	0	452	
13	0	0	0	0	499	
14	0	0	0	0	614	
15	0	0	0	0	252	
0	0	0	0	0	783	
1	0	0	0	0	259	
2	0	0	0	0	694	
3	0	0	0	0	536	
4	0	0	0	0	457	
5	0	0	0	0	596	
6	0	0	0	0	233	
7	0	0	0	0	639	
8	0	0	0	0	622	
9	0	0	0	0	347	
10	0	0	0	0	678	
11	0	0	0	0	529	
12	0	0	0	0	280	
13	0	0	0	0	671	
14	0	0	0	0	608	
15	0	0	0	0	348	
0	0	0	0	0	619	
1	0	0	0	0	537	
2	0	0	0	0	494	
3	0	0	0	0	379	
4	0	0	0	0	652	
5	0	0	0	0	419	
6	0	0	0	0	298	
7	0	0	0	0	737	
8	0	0	0	0	447	
9	0	0	0	0	584	
10	0	0	0	0	390	
11	0	0	0	0	386	
12	0	0	0	0	543	
13	0	0	0	0	245	
14	0	0	0	0	563	
15	0	0	0	0	499	
0	0	0	0	0	87	
1	0	0	0	0	680	
2	0	0	0	0	527	
3	0	0	0	0	457	
4	0	0	0	0	478	
5	0	0	0	0	254	
6	0	0	0	0	885	
7	0	0	0	0	59	
8	0	0	0	0	748	
9	0	0	0	0	687	
10	0	0	0	0	118	
11	0	0	0	0	755	
12	0	0	0	0	114	
13	0	0	0	0	788	
14	0	0	0	0	571	
15	0	0	0	0	352	
0	0	0	0	0	639	
1	0	0	0	0	279	
2	0	0	0	0	480	
3	0	0	0	0	462	
4	0	0	0	0	348	
5	0	0	0	0	795	
6	0	0	0	0	309	
7	0	0	0	0	876	
8	0	0	0	0	168	
9	0	0	0	0	792	
10	0	0	0	0	492	
11	0	0	0	0	434	
12	0	0	0	0	675	
13	0	0	0	0	582	
14	0	0	0	0	525	
15	0	0	0	0	499	
0	0	0	0	0	362	
1	0	0	0	0	385	
2	0	0	0	0	616	
3	0	0	0	0	408	
4	0	0	0	0	451	
5	0	0	0	0	481	
6	0	0	0	0	523	
7	0	0	0	0	433	
8	0	0	0	0	499	
9	0	0	0	0	620	
10	0	0	0	0	508	
11	0	0	0	0	380	
12	0	0	0	0	644	
13	0	0	0	0	306	
14	0	0	0	0	595	
15	0	0	0	0	531	
0	0	0	0	0	425	
1	0	0	0	0	593	
2	0	0	0	0	300	
3	0	0	0	0	661	
4	0	0	0	0	400	
5	0	0	0	0	674	
6	0	0	0	0	436	
7	0	0	0	0	626	
8	0	0	0	0	521	
9	0	0	0	0	395	
10	0	0	0	0	519	
11	0	0	0	0	511	
12	0	0	0	0	485	
13	0	0	0	0	608	
14	0	0	0	0	267	
15	0	0	0	0	620	
0	0	0	0	0	398	
1	0	0	0	0	453	
2	0	0	0	0	619	
3	0	0	0	0	324	
4	0	0	0	0	568	
5	0	0	0	0	480	
6	0	0	0	0	400	
7	0	0	0	0	550	
8	0	0	0	0	504	
9	0	0	0	0	476	
10	0	0	0	0	584	
11	0	0	0	0	343	
12	0	0	0	0	675	
13	0	0	0	0	373	
14	0	0	0	0	583	
15	0	0	0	0	498	
0	0	0	0	0	369	
1	0	0	0	0	651	
2	0	0	0	0	392	
3	0	0	0	0	558	
4	0	0	0	0	519	
5	0	0	0	0	440	
6	0	0	0	0	467	
7	0	0	0	0	577	
8	0	0	0	0	470	
9	0	0	0	0	533	
10	0	0	0	0	409	
11	0	0	0	0	592	
12	0	0	0	0	431	
13	0	0	0	0	572	
14	0	0	0	0	597	
15	0	0	0	0	494	
0	0	0	0	0	593	
1	0	0	0	0	376	
2	0	0	0	0	558	
3	0	0	0	0	525	
4	0	0	0	0	320	
5	0	0	0	0	709	
6	0	0	0	0	403	
7	0	0	0	0	581	
8	0	0	0	0	485	
9	0	0	0	0	374	
10	0	0	0	0	606	
11	0	0	0	0	411	
12	0	0	0	0	586	
13	0	0	0	0	489	
14	0	0	0	0	459	
15	0	0	0	0	581	
0	0	0	0	0	403	
1	0	0	0	0	588	
2	0	0	0	0	497	
3	0	0	0	0	457	
4	0	0	0	0	555	
5	0	0	0	0	408	
6	0	0	0	0	561	
7	0	0	0	0	500	
8	0	0	0	0	425	
9	0	0	0	0	592	
10	0	0	0	0	402	
11	0	0	0	0	561	
12	0	0	0	0	464	
13	0	0	0	0	480	
14	0	0	0	0	560	
15	0	0	0	0	487	
0	0	0	0	0	539	
1	0	0	0	0	519	
2	0	0	0	0	382	
3	0	0	0	0	606	
4	0	0	0	0	416	
5	0	0	0	0	564	
6	0	0	0	0	528	
7	0	0	0	0	382	
8	0	0	0	0	603	
9	0	0	0	0	383	
10	0	0	0	0	631	
11	0	0	0	0	493	
12	0	0	0	0	374	
13	0	0	0	0	622	
14	0	0	0	0	355	
15	0	0	0	0	690	
0	0	0	0	0	480	
1	0	0	0	0	349	
2	0	0	0	0	650	
3	0	0	0	0	394	
4	0	0	0	0	568	
5	0	0	0	0	535	
6	0	0	0	0	352	
7	0	0	0	0	661	
8	0	0	0	0	410	
9	0	0	0	0	518	
10	0	0	0	0	534	
11	0	0	0	0	387	
12	0	0	0	0	613	
13	0	0	0	0	421	
14	0	0	0	0	568	
15	0	0	0	0	515	
0	0	0	0	0	391	
1	0	0	0	0	623	
2	0	0	0	0	435	
3	0	0	0	0	569	
4	0	0	0	0	518	
5	0	0	0	0	386	
6	0	0	0	0	625	
7	0	0	0	0	421	
8	0	0	0	0	582	
9	0	0	0	0	563	
10	0	0	0	0	395	
11	0	0	0	0	594	
12	0	0	0	0	417	
13	0	0	0	0	564	
14	0	0	0	0	508	
15	0	0	0	0	403	
0	0	0	0	0	630	
1	0	0	0	0	444	
2	0	0	0	0	520	
3	0	0	0	0	528	
4	0	0	0	0	395	
5	0	0	0	0	615	
6	0	0	0	0	418	
7	0	0	0	0	569	
8	0	0	0	0	504	
9	0	0	0	0	418	
10	0	0	0	0	598	
11	0	0	0	0	404	
12	0	0	0	0	563	
13	0	0	0	0	516	
14	0	0	0	0	405	
15	0	0	0	0	610	
0	0	0	0	0	417	
1	0	0	0	0	564	
2	0	0	0	0	527	
3	0	0	0	0	448	
4	0	0	0	0	568	
5	0	0	0	0	417	
6	0	0	0	0	573	
7	0	0	0	0	511	
8	0	0	0	0	327	
9	0	0	0	0	718	
10	0	0	0	0	353	
11	0	0	0	0	580	
12	0	0	0	0	487	
13	0	0	0	0	446	
14	0	0	0	0	518	
15	0	0	0	0	538	
0	0	0	0	0	514	
1	0	0	0	0	455	
2	0	0	0	0	556	
3	0	0	0	0	493	
4	0	0	0	0	513	
5	0	0	0	0	526	
6	0	0	0	0	503	
7	0	0	0	0	479	
8	0	0	0	0	534	
9	0	0	0	0	476	
10	0	0	0	0	524	
11	0	0	0	0	505	
12	0	0	0	0	483	
13	0	0	0	0	527	
14	0	0	0	0	472	
15	0	0	0	0	523	
0	0	0	0	0	502	
1	0	0	0	0	480	
2	0	0	0	0	532	
3	0	0	0	0	479	
4	0	0	0	0	519	
5	0	0	0	0	507	
6	0	0	0	0	465	
7	0	0	0	0	539	
8	0	0	0	0	494	
9	0	0	0	0	501	
10	0	0	0	0	509	
11	0	0	0	0	442	
12	0	0	0	0	549	
13	0	0	0	0	481	
14	0	0	0	0	494	
15	0	0	0	0	533	
0	0	0	0	0	465	
1	0	0	0	0	555	
2	0	0	0	0	503	
3	0	0	0	0	500	
4	0	0	0	0	533	
5	0	0	0	0	437	
6	0	0	0	0	556	
7	0	0	0	0	481	
8	0	0	0	0	463	
9	0	0	0	0	542	
10	0	0	0	0	422	
11	0	0	0	0	572	
12	0	0	0	0	493	
13	0	0	0	0	486	
14	0	0	0	0	538	
15	0	0	0	0	422	
0	0	0	0	0	571	
1	0	0	0	0	491	
2	0	0	0	0	491	
3	0	0	0	0	541	
4	0	0	0	0	445	
5	0	0	0	0	576	
6	0	0	0	0	489	
7	0	0	0	0	485	
8	0	0	0	0	531	
9	0	0	0	0	446	
10	0	0	0	0	577	
11	0	0	0	0	524	
12	0	0	0	0	493	
13	0	0	0	0	535	
14	0	0	0	0	416	
15	0	0	0	0	582	
0	0	0	0	0	486	
1	0	0	0	0	494	
2	0	0	0	0	532	
3	0	0	0	0	412	
4	0	0	0	0	602	
5	0	0	0	0	508	
6	0	0	0	0	490	
7	0	0	0	0	547	
8	0	0	0	0	403	
9	0	0	0	0	589	
10	0	0	0	0	490	
11	0	0	0	0	475	
12	0	0	0	0	546	
13	0	0	0	0	419	
14	0	0	0	0	620	
15	0	0	0	0	493	
0	0	0	0	0	483	
1	0	0	0	0	535	
2	0	0	0	0	427	
3	0	0	0	0	571	
4	0	0	0	0	503	
5	0	0	0	0	496	
6	0	0	0	0	529	
7	0	0	0	0	420	
8	0	0	0	0	565	
9	0	0	0	0	499	
10	0	0	0	0	491	
11	0	0	0	0	534	
12	0	0	0	0	444	
13	0	0	0	0	562	
14	0	0	0	0	471	
15	0	0	0	0	509	
0	0	0	0	0	525	
1	0	0	0	0	447	
2	0	0	0	0	566	
3	0	0	0	0	487	
4	0	0	0	0	503	
5	0	0	0	0	522	
6	0	0	0	0	450	
7	0	0	0	0	557	
8	0	0	0	0	497	
9	0	0	0	0	488	
10	0	0	0	0	517	
11	0	0	0	0	454	
12	0	0	0	0	560	
13	0	0	0	0	494	
14	0	0	0	0	495	
15	0	0	0	0	509	
0	0	0	0	0	473	
1	0	0	0	0	524	
2	0	0	0	0	503	
3	0	0	0	0	558	
4	0	0	0	0	471	
5	0	0	0	0	475	
6	0	0	0	0	526	
7	0	0	0	0	499	
8	0	0	0	0	518	
9	0	0	0	0	507	
10	0	0	0	0	547	
11	0	0	0	0	507	
12	0	0	0	0	465	
13	0	0	0	0	534	
14	0	0	0	0	496	
15	0	0	0	0	469	
0	0	0	0	0	539	
1	0	0	0	0	451	
2	0	0	0	0	574	
3	0	0	0	0	458	
4	0	0	0	0	523	
5	0	0	0	0	489	
6	0	0	0	0	422	
7	0	0	0	0	599	
8	0	0	0	0	462	
9	0	0	0	0	557	
10	0	0	0	0	495	
11	0	0	0	0	438	
12	0	0	0	0	563	
13	0	0	0	0	460	
14	0	0	0	0	474	
15	0	0	0	0	624	
0	0	0	0	0	361	
1	0	0	0	0	648	
2	0	0	0	0	425	
3	0	0	0	0	467	
4	0	0	0	0	576	
5	0	0	0	0	409	
6	0	0	0	0	586	
7	0	0	0	0	562	
8	0	0	0	0	423	
9	0	0	0	0	530	
10	0	0	0	0	496	
11	0	0	0	0	500	
12	0	0	0	0	518	
13	0	0	0	0	447	
14	0	0	0	0	566	
15	0	0	0	0	477	
0	0	0	0	0	491	
1	0	0	0	0	544	
2	0	0	0	0	452	
3	0	0	0	0	616	
4	0	0	0	0	374	
5	0	0	0	0	530	
6	0	0	0	0	431	
7	0	0	0	0	477	
8	0	0	0	0	515	
9	0	0	0	0	487	
10	0	0	0	0	566	
11	0	0	0	0	537	
12	0	0	0	0	590	
13	0	0	0	0	298	
14	0	0	0	0	548	
15	0	0	0	0	463	
0	0	0	0	0	509	
1	0	0	0	0	409	
2	0	0	0	0	525	
3	0	0	0	0	511	
4	0	0	0	0	556	
5	0	0	0	0	437	
6	0	0	0	0	514	
7	0	0	0	0	477	
8	0	0	0	0	497	
9	0	0	0	0	391	
10	0	0	0	0	475	
11	0	0	0	0	461	
12	0	0	0	0	765	
13	0	0	0	0	323	
14	0	0	0	0	614	
15	0	0	0	0	248	
0	0	0	0	0	604	
1	0	0	0	0	678	
2	0	0	0	0	443	
3	0	0	0	0	431	
4	0	0	0	0	476	
5	0	0	0	0	413	
6	0	0	0	0	644	
7	0	0	0	0	434	
8	0	0	0	0	412	
9	0	0	0	0	440	
10	0	0	0	0	381	
11	0	0	0	0	322	
12	0	0	0	0	421	
13	0	0	0	0	594	
14	0	0	0	0	489	
15	0	0	0	0	748	
0	0	0	0	0	219	
1	0	0	0	0	484	
2	0	0	0	0	626	
3	0	0	0	0	642	
4	0	0	0	0	310	
5	0	0	0	0	638	
6	0	0	0	0	423	
7	0	0	0	0	190	
8	0	0	0	0	362	
9	0	0	0	0	751	
10	0	0	0	0	259	
11	0	0	0	0	647	
12	0	0	0	0	606	
13	0	0	0	0	928	
14	0	0	0	0	448	
15	0	0	0	0	338	
0	0	0	0	0	496	
1	0	0	0	0	430	
2	0	0	0	0	832	
3	0	0	0	0	629	
4	0	0	0	0	1014	
5	0	0	0	0	144	
6	0	0	0	0	682	
7	0	0	0	0	405	
8	0	0	0	0	603	
9	0	0	0	0	498	
10	0	0	0	0	457	
11	0	0	0	0	1022	
12	0	0	0	0	491	
13	0	0	0	0	485	
14	0	0	0	0	494	
15	0	0	0	0	971	
0	0	0	0	0	359	
1	0	0	0	0	1022	
2	0	0	0	0	0	
3	0	0	0	0	862	
4	0	0	0	0	298	
5	0	0	0	0	143	
6	0	0	0	0	714	
7	0	0	0	0	582	
8	0	0	0	0	79	
9	0	0	0	0	887	
10	0	0	0	0	955	
11	0	0	0	0	498	
12	0	0	0	0	556	
13	0	0	0	0	383	
14	0	0	0	0	732	
15	0	0	0	0	298	
0	0	0	0	0	839	
1	0	0	0	0	131	
2	0	0	0	0	948	
3	0	0	0	0	22	
4	0	0	0	0	380	
5	0	0	0	0	581	
6	0	0	0	0	549	
7	0	0	0	0	205	
8	0	0	0	0	682	
9	0	0	0	0	478	
10	0	0	0	0	603	
11	0	0	0	0	501	
12	0	0	0	0	535	
13	0	0	0	0	589	
14	0	0	0	0	876	
15	0	0	0	0	184	
0	0	0	0	0	307	
1	0	0	0	0	440	
2	0	0	0	0	37	
3	0	0	0	0	546	
4	0	0	0	0	432	
5	0	0	0	0	153	
6	0	0	0	0	598	
7	0	0	0	0	316	
8	0	0	0	0	677	
9	0	0	0	0	590	
10	0	0	0	0	224	
11	0	0	0	0	871	
12	0	0	0	0	0	
13	0	0	0	0	731	
14	0	0	0	0	358	
15	0	0	0	0	303	
0	0	0	0	0	621	
1	0	0	0	0	759	
2	0	0	0	0	422	
3	0	0	0	0	631	
4	0	0	0	0	432	
5	0	0	0	0	757	
6	0	0	0	0	333	
7	0	0	0	0	858	
8	0	0	0	0	584	
9	0	0	0	0	220	
10	0	0	0	0	858	
11	0	0	0	0	309	
12	0	0	0	0	482	
13	0	0	0	0	491	
14	0	0	0	0	531	
15	0	0	0	0	586	
0	0	0	0	0	344	
1	0	0	0	0	668	
2	0	0	0	0	646	
3	0	0	0	0	292	
4	0	0	0	0	598	
5	0	0	0	0	335	
6	0	0	0	0	632	
7	0	0	0	0	426	
8	0	0	0	0	329	
9	0	0	0	0	593	
10	0	0	0	0	465	
11	0	0	0	0	491	
12	0	0	0	0	741	
13	0	0	0	0	471	
14	0	0	0	0	511	
15	0	0	0	0	417	
0	0	0	0	0	559	
1	0	0	0	0	520	
2	0	0	0	0	423	
3	0	0	0	0	581	
4	0	0	0	0	387	
5	0	0	0	0	625	
6	0	0	0	0	415	
7	0	0	0	0	489	
8	0	0	0	0	555	
9	0	0	0	0	394	
10	0	0	0	0	562	
11	0	0	0	0	517	
12	0	0	0	0	433	
13	0	0	0	0	551	
14	0	0	0	0	395	
15	0	0	0	0	543	
0	0	0	0	0	497	
1	0	0	0	0	443	
2	0	0	0	0	572	
3	0	0	0	0	436	
4	0	0	0	0	553	
5	0	0	0	0	508	
6	0	0	0	0	425	
7	0	0	0	0	580	
8	0	0	0	0	420	
9	0	0	0	0	583	
10	0	0	0	0	526	
11	0	0	0	0	425	
12	0	0	0	0	573	
13	0	0	0	0	451	
14	0	0	0	0	441	
15	0	0	0	0	714	
0	0	0	0	0	342	
1	0	0	0	0	559	
2	0	0	0	0	454	
3	0	0	0	0	542	
4	0	0	0	0	499	
5	0	0	0	0	455	
6	0	0	0	0	544	
7	0	0	0	0	408	
8	0	0	0	0	603	
9	0	0	0	0	456	
10	0	0	0	0	499	
11	0	0	0	0	514	
12	0	0	0	0	478	
13	0	0	0	0	540	
14	0	0	0	0	501	
15	0	0	0	0	492	
0	0	0	0	0	522	
1	0	0	0	0	486	
2	0	0	0	0	520	
3	0	0	0	0	505	
4	0	0	0	0	489	
5	0	0	0	0	526	
6	0	0	0	0	483	
7	0	0	0	0	512	
8	0	0	0	0	506	
9	0	0	0	0	478	
10	0	0	0	0	528	
11	0	0	0	0	485	
12	0	0	0	0	514	
13	0	0	0	0	503	
14	0	0	0	0	475	
15	0	0	0	0	534	
0	0	0	0	0	494	
1	0	0	0	0	510	
2	0	0	0	0	512	
3	0	0	0	0	478	
4	0	0	0	0	540	
5	0	0	0	0	490	
6	0	0	0	0	514	
7	0	0	0	0	514	
8	0	0	0	0	478	
9	0	0	0	0	538	
10	0	0	0	0	493	
11	0	0	0	0	512	
12	0	0	0	0	512	
13	0	0	0	0	478	
14	0	0	0	0	534	
15	0	0	0	0	492	
0	0	0	0	0	506	
1	0	0	0	0	514	
2	0	0	0	0	472	
3	0	0	0	0	546	
4	0	0	0	0	489	
5	0	0	0	0	507	
6	0	0	0	0	516	
7	0	0	0	0	472	
8	0	0	0	0	537	
9	0	0	0	0	489	
10	0	0	0	0	509	
11	0	0	0	0	506	
12	0	0	0	0	475	
13	0	0	0	0	535	
14	0	0	0	0	491	
15	0	0	0	0	512	
0	0	0	0	0	508	
1	0	0	0	0	480	
2	0	0	0	0	534	
3	0	0	0	0	487	
4	0	0	0	0	511	
5	0	0	0	0	511	
6	0	0	0	0	475	
7	0	0	0	0	541	
8	0	0	0	0	490	
9	0	0	0	0	512	
10	0	0	0	0	510	
11	0	0	0	0	477	
12	0	0	0	0	531	
13	0	0	0	0	496	
14	0	0	0	0	508	
15	0	0	0	0	508	
0	0	0	0	0	471	
1	0	0	0	0	537	
2	0	0	0	0	488	
3	0	0	0	0	513	
4	0	0	0	0	517	
5	0	0	0	0	466	
6	0	0	0	0	536	
7	0	0	0	0	491	
8	0	0	0	0	500	
9	0	0	0	0	516	
10	0	0	0	0	463	
11	0	0	0	0	542	
12	0	0	0	0	489	
13	0	0	0	0	506	
14	0	0	0	0	514	
15	0	0	0	0	470	
0	0	0	0	0	544	
1	0	0	0	0	489	
2	0	0	0	0	500	
3	0	0	0	0	515	
4	0	0	0	0	463	
5	0	0	0	0	547	
6	0	0	0	0	497	
7	0	0	0	0	496	
8	0	0	0	0	524	
9	0	0	0	0	458	
10	0	0	0	0	552	
11	0	0	0	0	501	
12	0	0	0	0	494	
13	0	0	0	0	527	
14	0	0	0	0	455	
15	0	0	0	0	558	
0	0	0	0	0	500	
1	0	0	0	0	489	
2	0	0	0	0	525	
3	0	0	0	0	452	
4	0	0	0	0	560	
5	0	0	0	0	499	
6	0	0	0	0	495	
7	0	0	0	0	534	
8	0	0	0	0	446	
9	0	0	0	0	572	
10	0	0	0	0	501	
11	0	0	0	0	489	
12	0	0	0	0	531	
13	0	0	0	0	452	
14	0	0	0	0	554	
15	0	0	0	0	497	
0	0	0	0	0	492	
1	0	0	0	0	525	
2	0	0	0	0	458	
3	0	0	0	0	550	
4	0	0	0	0	503	
5	0	0	0	0	494	
6	0	0	0	0	525	
7	0	0	0	0	459	
8	0	0	0	0	552	
9	0	0	0	0	499	
10	0	0	0	0	497	
11	0	0	0	0	524	
12	0	0	0	0	463	
13	0	0	0	0	552	
14	0	0	0	0	497	
15	0	0	0	0	493	
0	0	0	0	0	522	
1	0	0	0	0	461	
2	0	0	0	0	550	
3	0	0	0	0	498	
4	0	0	0	0	493	
5	0	0	0	0	520	
6	0	0	0	0	467	
7	0	0	0	0	547	
8	0	0	0	0	498	
9	0	0	0	0	501	
10	0	0	0	0	514	
11	0	0	0	0	466	
12	0	0	0	0	543	
13	0	0	0	0	500	
14	0	0	0	0	504	
15	0	0	0	0	508	
0	0	0	0	0	469	
1	0	0	0	0	539	
2	0	0	0	0	493	
3	0	0	0	0	502	
4	0	0	0	0	515	
5	0	0	0	0	473	
6	0	0	0	0	536	
7	0	0	0	0	493	
8	0	0	0	0	502	
9	0	0	0	0	518	
10	0	0	0	0	475	
11	0	0	0	0	536	
12	0	0	0	0	494	
13	0	0	0	0	506	
14	0	0	0	0	504	
15	0	0	0	0	478	
0	0	0	0	0	532	
1	0	0	0	0	494	
2	0	0	0	0	504	
3	0	0	0	0	504	
4	0	0	0	0	478	
5	0	0	0	0	534	
6	0	0	0	0	502	
7	0	0	0	0	515	
8	0	0	0	0	510	
9	0	0	0	0	481	
10	0	0	0	0	530	
11	0	0	0	0	492	
12	0	0	0	0	508	
13	0	0	0	0	509	
14	0	0	0	0	480	
15	0	0	0	0	525	
0	0	0	0	0	489	
1	0	0	0	0	510	
2	0	0	0	0	501	
3	0	0	0	0	484	
4	0	0	0	0	525	
5	0	0	0	0	493	
6	0	0	0	0	499	
7	0	0	0	0	510	
8	0	0	0	0	485	
9	0	0	0	0	527	
10	0	0	0	0	491	
11	0	0	0	0	515	
12	0	0	0	0	508	
13	0	0	0	0	490	
14	0	0	0	0	517	
15	0	0	0	0	489	
0	0	0	0	0	510	
1	0	0	0	0	505	
2	0	0	0	0	493	
3	0	0	0	0	515	
4	0	0	0	0	486	
5	0	0	0	0	514	
6	0	0	0	0	491	
7	0	0	0	0	508	
8	0	0	0	0	502	
9	0	0	0	0	493	
10	0	0	0	0	524	
11	0	0	0	0	499	
12	0	0	0	0	495	
13	0	0	0	0	514	
14	0	0	0	0	488	
15	0	0	0	0	517	
0	0	0	0	0	500	
1	0	0	0	0	496	
2	0	0	0	0	519	
3	0	0	0	0	488	
4	0	0	0	0	513	
5	0	0	0	0	511	
6	0	0	0	0	474	
7	0	0	0	0	544	
8	0	0	0	0	494	
9	0	0	0	0	499	
10	0	0	0	0	502	
11	0	0	0	0	498	
12	0	0	0	0	524	
13	0	0	0	0	486	
14	0	0	0	0	490	
15	0	0	0	0	528	
0	0	0	0	0	469	
1	0	0	0	0	540	
2	0	0	0	0	498	
3	0	0	0	0	485	
4	0	0	0	0	523	
5	0	0	0	0	470	
6	0	0	0	0	539	
7	0	0	0	0	505	
8	0	0	0	0	487	
9	0	0	0	0	524	
10	0	0	0	0	475	
11	0	0	0	0	531	
12	0	0	0	0	503	
13	0	0	0	0	495	
14	0	0	0	0	522	
15	0	0	0	0	481	
0	0	0	0	0	530	
1	0	0	0	0	502	
2	0	0	0	0	485	
3	0	0	0	0	519	
4	0	0	0	0	475	
5	0	0	0	0	537	
6	0	0	0	0	512	
7	0	0	0	0	488	
8	0	0	0	0	519	
9	0	0	0	0	474	
10	0	0	0	0	532	
11	0	0	0	0	505	
12	0	0	0	0	486	
13	0	0	0	0	518	
14	0	0	0	0	476	
15	0	0	0	0	535	
0	0	0	0	0	506	
1	0	0	0	0	490	
2	0	0	0	0	517	
3	0	0	0	0	480	
4	0	0	0	0	532	
5	0	0	0	0	505	
6	0	0	0	0	488	
7	0	0	0	0	515	
8	0	0	0	0	481	
9	0	0	0	0	534	
10	0	0	0	0	505	
11	0	0	0	0	485	
12	0	0	0	0	513	
13	0	0	0	0	483	
14	0	0	0	0	530	
15	0	0	0	0	504	
0	0	0	0	0	488	
1	0	0	0	0	515	
2	0	0	0	0	482	
3	0	0	0	0	527	
4	0	0	0	0	507	
5	0	0	0	0	484	
6	0	0	0	0	515	
7	0	0	0	0	487	
8	0	0	0	0	530	
9	0	0	0	0	504	
10	0	0	0	0	487	
11	0	0	0	0	519	
12	0	0	0	0	482	
13	0	0	0	0	532	
14	0	0	0	0	505	
15	0	0	0	0	485	
0	0	0	0	0	519	
1	0	0	0	0	483	
2	0	0	0	0	529	
3	0	0	0	0	505	
4	0	0	0	0	488	
5	0	0	0	0	517	
6	0	0	0	0	483	
7	0	0	0	0	525	
8	0	0	0	0	508	
9	0	0	0	0	483	
10	0	0	0	0	515	
11	0	0	0	0	487	
12	0	0	0	0	526	
13	0	0	0	0	509	
14	0	0	0	0	484	
15	0	0	0	0	517	
0	0	0	0	0	487	
1	0	0	0	0	526	
2	0	0	0	0	509	
3	0	0	0	0	483	
4	0	0	0	0	518	
5	0	0	0	0	491	
6	0	0	0	0	524	
7	0	0	0	0	505	
8	0	0	0	0	486	
9	0	0	0	0	518	
10	0	0	0	0	487	
11	0	0	0	0	520	
12	0	0	0	0	506	
13	0	0	0	0	483	
14	0	0	0	0	517	
15	0	0	0	0	487	
0	0	0	0	0	520	
1	0	0	0	0	508	
2	0	0	0	0	486	
3	0	0	0	0	518	
4	0	0	0	0	489	
5	0	0	0	0	518	
6	0	0	0	0	507	
7	0	0	0	0	485	
8	0	0	0	0	516	
9	0	0	0	0	496	
10	0	0	0	0	521	
11	0	0	0	0	505	
12	0	0	0	0	483	
13	0	0	0	0	518	
14	0	0	0	0	491	
15	0	0	0	0	521	
0	0	0	0	0	507	
1	0	0	0	0	484	
2	0	0	0	0	518	
3	0	0	0	0	487	
4	0	0	0	0	521	
5	0	0	0	0	509	
6	0	0	0	0	483	
7	0	0	0	0	516	
8	0	0	0	0	494	
9	0	0	0	0	527	
10	0	0	0	0	524	
11	0	0	0	0	545	
12	0	0	0	0	486	
13	0	0	0	0	482	
14	0	0	0	0	520	
15	0	0	0	0	506	
0	0	0	0	0	525	
1	0	0	0	0	507	
2	0	0	0	0	488	
3	0	0	0	0	523	
4	0	0	0	0	502	
5	0	0	0	0	493	
6	0	0	0	0	535	
7	0	0	0	0	485	
8	0	0	0	0	533	
9	0	0	0	0	496	
10	0	0	0	0	494	
11	0	0	0	0	513	
12	0	0	0	0	489	
13	0	0	0	0	521	
14	0	0	0	0	504	
15	0	0	0	0	505	
0	0	0	0	0	513	
1	0	0	0	0	490	
2	0	0	0	0	506	
3	0	0	0	0	508	
4	0	0	0	0	490	
5	0	0	0	0	511	
6	0	0	0	0	494	
7	0	0	0	0	518	
8	0	0	0	0	503	
9	0	0	0	0	491	
10	0	0	0	0	512	
11	0	0	0	0	489	
12	0	0	0	0	516	
13	0	0	0	0	504	
14	0	0	0	0	491	
15	0	0	0	0	517	
0	0	0	0	0	492	
1	0	0	0	0	518	
2	0	0	0	0	507	
3	0	0	0	0	486	
4	0	0	0	0	518	
5	0	0	0	0	494	
6	0	0	0	0	519	
7	0	0	0	0	509	
8	0	0	0	0	491	
9	0	0	0	0	514	
10	0	0	0	0	487	
11	0	0	0	0	518	
12	0	0	0	0	509	
13	0	0	0	0	486	
14	0	0	0	0	521	
15	0	0	0	0	483	
0	0	0	0	0	518	
1	0	0	0	0	506	
2	0	0	0	0	487	
3	0	0	0	0	518	
4	0	0	0	0	490	
5	0	0	0	0	511	
6	0	0	0	0	504	
7	0	0	0	0	489	
8	0	0	0	0	518	
9	0	0	0	0	486	
10	0	0	0	0	512	
11	0	0	0	0	508	
12	0	0	0	0	476	
13	0	0	0	0	511	
14	0	0	0	0	490	
15	0	0	0	0	513	
0	0	0	0	0	503	
1	0	0	0	0	505	
2	0	0	0	0	524	
3	0	0	0	0	494	
4	0	0	0	0	527	
5	0	0	0	0	499	
6	0	0	0	0	498	
7	0	0	0	0	513	
8	0	0	0	0	470	
9	0	0	0	0	570	
10	0	0	0	0	481	
11	0	0	0	0	467	
12	0	0	0	0	555	
13	0	0	0	0	474	
14	0	0	0	0	447	
15	0	0	0	0	563	
0	0	0	0	0	477	
1	0	0	0	0	472	
2	0	0	0	0	549	
3	0	0	0	0	501	
4	0	0	0	0	475	
5	0	0	0	0	501	
6	0	0	0	0	514	
7	0	0	0	0	495	
8	0	0	0	0	513	
9	0	0	0	0	492	
10	0	0	0	0	503	
11	0	0	0	0	507	
12	0	0	0	0	498	
13	0	0	0	0	528	
14	0	0	0	0	500	
15	0	0	0	0	502	
0	0	0	0	0	510	
1	0	0	0	0	479	
2	0	0	0	0	529	
3	0	0	0	0	500	
4	0	0	0	0	490	
5	0	0	0	0	520	
6	0	0	0	0	486	
7	0	0	0	0	512	
8	0	0	0	0	497	
9	0	0	0	0	513	
10	0	0	0	0	510	
11	0	0	0	0	489	
12	0	0	0	0	512	
13	0	0	0	0	498	
14	0	0	0	0	492	
15	0	0	0	0	514	
0	0	0	0	0	491	
1	0	0	0	0	511	
2	0	0	0	0	498	
3	0	0	0	0	498	
4	0	0	0	0	517	
5	0	0	0	0	500	
6	0	0	0	0	510	
7	0	0	0	0	507	
8	0	0	0	0	486	
9	0	0	0	0	523	
10	0	0	0	0	492	
11	0	0	0	0	517	
12	0	0	0	0	503	
13	0	0	0	0	489	
14	0	0	0	0	513	
15	0	0	0	0	494	
0	0	0	0	0	512	
1	0	0	0	0	503	
2	0	0	0	0	494	
3	0	0	0	0	515	
4	0	0	0	0	496	
5	0	0	0	0	513	
6	0	0	0	0	501	
7	0	0	0	0	498	
8	0	0	0	0	512	
9	0	0	0	0	495	
10	0	0	0	0	505	
11	0	0	0	0	503	
12	0	0	0	0	496	
13	0	0	0	0	521	
14	0	0	0	0	496	
15	0	0	0	0	508	
0	0	0	0	0	505	
1	0	0	0	0	492	
2	0	0	0	0	520	
3	0	0	0	0	493	
4	0	0	0	0	511	
5	0	0	0	0	505	
6	0	0	0	0	492	
7	0	0	0	0	520	
8	0	0	0	0	496	
9	0	0	0	0	514	
10	0	0	0	0	501	
11	0	0	0	0	487	
12	0	0	0	0	519	
13	0	0	0	0	496	
14	0	0	0	0	509	
15	0	0	0	0	505	
0	0	0	0	0	490	
1	0	0	0	0	526	
2	0	0	0	0	493	
3	0	0	0	0	510	
4	0	0	0	0	504	
5	0	0	0	0	487	
6	0	0	0	0	523	
7	0	0	0	0	494	
8	0	0	0	0	508	
9	0	0	0	0	507	
10	0	0	0	0	489	
11	0	0	0	0	521	
12	0	0	0	0	493	
13	0	0	0	0	507	
14	0	0	0	0	509	
15	0	0	0	0	487	
0	0	0	0	0	523	
1	0	0	0	0	496	
2	0	0	0	0	508	
3	0	0	0	0	506	
4	0	0	0	0	491	
5	0	0	0	0	521	
6	0	0	0	0	500	
7	0	0	0	0	506	
8	0	0	0	0	504	
9	0	0	0	0	488	
10	0	0	0	0	524	
11	0	0	0	0	498	
12	0	0	0	0	507	
13	0	0	0	0	507	
14	0	0	0	0	487	
15	0	0	0	0	517	
0	0	0	0	0	497	
1	0	0	0	0	509	
2	0	0	0	0	504	
3	0	0	0	0	490	
4	0	0	0	0	519	
5	0	0	0	0	500	
6	0	0	0	0	509	
7	0	0	0	0	506	
8	0	0	0	0	491	
9	0	0	0	0	519	
10	0	0	0	0	494	
11	0	0	0	0	509	
12	0	0	0	0	500	
13	0	0	0	0	491	
14	0	0	0	0	520	
15	0	0	0	0	496	
0	0	0	0	0	507	
1	0	0	0	0	504	
2	0	0	0	0	492	
3	0	0	0	0	523	
4	0	0	0	0	494	
5	0	0	0	0	512	
6	0	0	0	0	502	
7	0	0	0	0	491	
8	0	0	0	0	520	
9	0	0	0	0	494	
10	0	0	0	0	508	
11	0	0	0	0	505	
12	0	0	0	0	492	
13	0	0	0	0	523	
14	0	0	0	0	493	
15	0	0	0	0	511	
0	0	0	0	0	506	
1	0	0	0	0	493	
2	0	0	0	0	520	
3	0	0	0	0	495	
4	0	0	0	0	510	
5	0	0	0	0	502	
6	0	0	0	0	493	
7	0	0	0	0	518	
8	0	0	0	0	495	
9	0	0	0	0	508	
10	0	0	0	0	504	
11	0	0	0	0	495	
12	0	0	0	0	519	
13	0	0	0	0	495	
14	0	0	0	0	505	
15	0	0	0	0	504	
0	0	0	0	0	491	
1	0	0	0	0	521	
2	0	0	0	0	496	
3	0	0	0	0	508	
4	0	0	0	0	505	
5	0	0	0	0	492	
6	0	0	0	0	522	
7	0	0	0	0	496	
8	0	0	0	0	509	
9	0	0	0	0	506	
10	0	0	0	0	491	
11	0	0	0	0	520	
12	0	0	0	0	497	
13	0	0	0	0	508	
14	0	0	0	0	506	
15	0	0	0	0	491	
0	0	0	0	0	523	
1	0	0	0	0	495	
2	0	0	0	0	507	
3	0	0	0	0	503	
4	0	0	0	0	490	
5	0	0	0	0	519	
6	0	0	0	0	496	
7	0	0	0	0	507	
8	0	0	0	0	504	
9	0	0	0	0	490	
10	0	0	0	0	524	
11	0	0	0	0	496	
12	0	0	0	0	508	
13	0	0	0	0	504	
14	0	0	0	0	489	
15	0	0	0	0	521	
0	0	0	0	0	497	
1	0	0	0	0	508	
2	0	0	0	0	503	
3	0	0	0	0	491	
4	0	0	0	0	521	
5	0	0	0	0	496	
6	0	0	0	0	508	
7	0	0	0	0	505	
8	0	0	0	0	490	
9	0	0	0	0	524	
10	0	0	0	0	495	
11	0	0	0	0	507	
12	0	0	0	0	506	
13	0	0	0	0	488	
14	0	0	0	0	522	
15	0	0	0	0	496	
0	0	0	0	0	506	
1	0	0	0	0	506	
2	0	0	0	0	489	
3	0	0	0	0	522	
4	0	0	0	0	495	
5	0	0	0	0	508	
6	0	0	0	0	504	
7	0	0	0	0	490	
8	0	0	0	0	520	
9	0	0	0	0	492	
10	0	0	0	0	506	
11	0	0	0	0	510	
12	0	0	0	0	488	
13	0	0	0	0	523	
14	0	0	0	0	493	
15	0	0	0	0	506	
0	0	0	0	0	505	
1	0	0	0	0	491	
2	0	0	0	0	519	
3	0	0	0	0	494	
4	0	0	0	0	504	
5	0	0	0	0	508	
6	0	0	0	0	491	
7	0	0	0	0	521	
8	0	0	0	0	493	
9	0	0	0	0	504	
10	0	0	0	0	505	
11	0	0	0	0	491	
12	0	0	0	0	521	
13	0	0	0	0	495	
14	0	0	0	0	503	
15	0	0	0	0	508	
0	0	0	0	0	490	
1	0	0	0	0	525	
2	0	0	0	0	495	
3	0	0	0	0	501	
4	0	0	0	0	511	
5	0	0	0	0	487	
6	0	0	0	0	524	
7	0	0	0	0	497	
8	0	0	0	0	502	
9	0	0	0	0	511	
10	0	0	0	0	487	
11	0	0	0	0	523	
12	0	0	0	0	496	
13	0	0	0	0	503	
14	0	0	0	0	514	
15	0	0	0	0	484	
0	0	0	0	0	523	
1	0	0	0	0	497	
2	0	0	0	0	504	
3	0	0	0	0	512	
4	0	0	0	0	484	
5	0	0	0	0	525	
6	0	0	0	0	496	
7	0	0	0	0	501	
8	0	0	0	0	512	
9	0	0	0	0	485	
10	0	0	0	0	525	
11	0	0	0	0	496	
12	0	0	0	0	502	
13	0	0	0	0	511	
14	0	0	0	0	484	
15	0	0	0	0	528	
0	0	0	0	0	497	
1	0	0	0	0	500	
2	0	0	0	0	512	
3	0	0	0	0	487	
4	0	0	0	0	526	
5	0	0	0	0	500	
6	0	0	0	0	497	
7	0	0	0	0	511	
8	0	0	0	0	484	
9	0	0	0	0	530	
10	0	0	0	0	502	
11	0	0	0	0	497	
12	0	0	0	0	508	
13	0	0	0	0	485	
14	0	0	0	0	528	
15	0	0	0	0	501	
0	0	0	0	0	495	
1	0	0	0	0	512	
2	0	0	0	0	483	
3	0	0	0	0	528	
4	0	0	0	0	499	
5	0	0	0	0	498	
6	0	0	0	0	514	
7	0	0	0	0	485	
8	0	0	0	0	527	
9	0	0	0	0	501	
10	0	0	0	0	498	
11	0	0	0	0	510	
12	0	0	0	0	487	
13	0	0	0	0	526	
14	0	0	0	0	500	
15	0	0	0	0	496	
0	0	0	0	0	512	
1	0	0	0	0	486	
2	0	0	0	0	529	
3	0	0	0	0	496	
4	0	0	0	0	497	
5	0	0	0	0	513	
6	0	0	0	0	487	
7	0	0	0	0	527	
8	0	0	0	0	499	
9	0	0	0	0	495	
10	0	0	0	0	515	
11	0	0	0	0	486	
12	0	0	0	0	524	
13	0	0	0	0	500	
14	0	0	0	0	496	
15	0	0	0	0	512	
0	0	0	0	0	488	
1	0	0	0	0	528	
2	0	0	0	0	500	
3	0	0	0	0	492	
4	0	0	0	0	512	
5	0	0	0	0	486	
6	0	0	0	0	528	
7	0	0	0	0	498	
8	0	0	0	0	495	
9	0	0	0	0	514	
10	0	0	0	0	485	
11	0	0	0	0	528	
12	0	0	0	0	498	
13	0	0	0	0	494	
14	0	0	0	0	511	
15	0	0	0	0	489	
0	0	0	0	0	522	
1	0	0	0	0	503	
2	0	0	0	0	496	
3	0	0	0	0	515	
4	0	0	0	0	485	
5	0	0	0	0	523	
6	0	0	0	0	501	
7	0	0	0	0	495	
8	0	0	0	0	515	
9	0	0	0	0	486	
10	0	0	0	0	523	
11	0	0	0	0	498	
12	0	0	0	0	494	
13	0	0	0	0	512	
14	0	0	0	0	487	
15	0	0	0	0	521	
0	0	0	0	0	502	
1	0	0	0	0	494	
2	0	0	0	0	511	
3	0	0	0	0	489	
4	0	0	0	0	522	
5	0	0	0	0	503	
6	0	0	0	0	493	
7	0	0	0	0	512	
8	0	0	0	0	487	
9	0	0	0	0	524	
10	0	0	0	0	502	
11	0	0	0	0	493	
12	0	0	0	0	513	
13	0	0	0	0	487	
14	0	0	0	0	523	
15	0	0	0	0	504	
0	0	0	0	0	490	
1	0	0	0	0	512	
2	0	0	0	0	487	
3	0	0	0	0	524	
4	0	0	0	0	504	
5	0	0	0	0	492	
6	0	0	0	0	515	
7	0	0	0	0	488	
8	0	0	0	0	520	
9	0	0	0	0	501	
10	0	0	0	0	491	
11	0	0	0	0	518	
12	0	0	0	0	487	
13	0	0	0	0	521	
14	0	0	0	0	504	
15	0	0	0	0	489	
0	0	0	0	0	516	
1	0	0	0	0	486	
2	0	0	0	0	519	
3	0	0	0	0	502	
4	0	0	0	0	491	
5	0	0	0	0	515	
6	0	0	0	0	489	
7	0	0	0	0	521	
8	0	0	0	0	504	
9	0	0	0	0	492	
10	0	0	0	0	516	
11	0	0	0	0	489	
12	0	0	0	0	522	
13	0	0	0	0	502	
14	0	0	0	0	492	
15	0	0	0	0	514	
0	0	0	0	0	486	
1	0	0	0	0	524	
2	0	0	0	0	505	
3	0	0	0	0	492	
4	0	0	0	0	513	
5	0	0	0	0	488	
6	0	0	0	0	520	
7	0	0	0	0	500	
8	0	0	0	0	488	
9	0	0	0	0	513	
10	0	0	0	0	492	
11	0	0	0	0	515	
12	0	0	0	0	503	
13	0	0	0	0	494	
14	0	0	0	0	509	
15	0	0	0	0	496	
0	0	0	0	0	513	
1	0	0	0	0	504	
2	0	0	0	0	499	
3	0	0	0	0	508	
4	0	0	0	0	497	
5	0	0	0	0	515	
6	0	0	0	0	502	
7	0	0	0	0	498	
8	0	0	0	0	509	
9	0	0	0	0	503	
10	0	0	0	0	514	
11	0	0	0	0	503	
12	0	0	0	0	501	
13	0	0	0	0	505	
14	0	0	0	0	500	
15	0	0	0	0	515	
0	0	0	0	0	501	
1	0	0	0	0	497	
2	0	0	0	0	508	
3	0	0	0	0	498	
4	0	0	0	0	512	
5	0	0	0	0	500	
6	0	0	0	0	498	
7	0	0	0	0	511	
8	0	0	0	0	499	
9	0	0	0	0	511	
10	0	0	0	0	501	
11	0	0	0	0	501	
12	0	0	0	0	507	
13	0	0	0	0	501	
14	0	0	0	0	512	
15	0	0	0	0	502	
0	0	0	0	0	503	
1	0	0	0	0	509	
2	0	0	0	0	497	
3	0	0	0	0	513	
4	0	0	0	0	501	
5	0	0	0	0	500	
6	0	0	0	0	510	
7	0	0	0	0	500	
8	0	0	0	0	513	
9	0	0	0	0	500	
10	0	0	0	0	499	
11	0	0	0	0	508	
12	0	0	0	0	499	
13	0	0	0	0	513	
14	0	0	0	0	501	
15	0	0	0	0	498	
0	0	0	0	0	510	
1	0	0	0	0	492	
2	0	0	0	0	515	
3	0	0	0	0	504	
4	0	0	0	0	495	
5	0	0	0	0	513	
6	0	0	0	0	490	
7	0	0	0	0	515	
8	0	0	0	0	504	
9	0	0	0	0	493	
10	0	0	0	0	513	
11	0	0	0	0	489	
12	0	0	0	0	518	
13	0	0	0	0	504	
14	0	0	0	0	490	
15	0	0	0	0	515	
0	0	0	0	0	490	
1	0	0	0	0	516	
2	0	0	0	0	508	
3	0	0	0	0	487	
4	0	0	0	0	518	
5	0	0	0	0	490	
6	0	0	0	0	516	
7	0	0	0	0	505	
8	0	0	0	0	486	
9	0	0	0	0	519	
10	0	0	0	0	491	
11	0	0	0	0	516	
12	0	0	0	0	505	
13	0	0	0	0	487	
14	0	0	0	0	516	
15	0	0	0	0	491	
0	0	0	0	0	516	
1	0	0	0	0	505	
2	0	0	0	0	490	
3	0	0	0	0	519	
4	0	0	0	0	495	
5	0	0	0	0	514	
6	0	0	0	0	504	
7	0	0	0	0	487	
8	0	0	0	0	518	
9	0	0	0	0	493	
10	0	0	0	0	513	
11	0	0	0	0	504	
12	0	0	0	0	487	
13	0	0	0	0	517	
14	0	0	0	0	491	
15	0	0	0	0	515	
0	0	0	0	0	502	
1	0	0	0	0	487	
2	0	0	0	0	516	
3	0	0	0	0	493	
4	0	0	0	0	515	
5	0	0	0	0	504	
6	0	0	0	0	488	
7	0	0	0	0	518	
8	0	0	0	0	496	
9	0	0	0	0	513	
10	0	0	0	0	503	
11	0	0	0	0	487	
12	0	0	0	0	518	
13	0	0	0	0	498	
14	0	0	0	0	515	
15	0	0	0	0	502	
0	0	0	0	0	487	
1	0	0	0	0	515	
2	0	0	0	0	495	
3	0	0	0	0	512	
4	0	0	0	0	504	
5	0	0	0	0	487	
6	0	0	0	0	517	
7	0	0	0	0	497	
8	0	0	0	0	515	
9	0	0	0	0	505	
10	0	0	0	0	486	
11	0	0	0	0	515	
12	0	0	0	0	496	
13	0	0	0	0	512	
14	0	0	0	0	507	
15	0	0	0	0	488	
0	0	0	0	0	516	
1	0	0	0	0	497	
2	0	0	0	0	511	
3	0	0	0	0	506	
4	0	0	0	0	487	
5	0	0	0	0	518	
6	0	0	0	0	495	
7	0	0	0	0	508	
8	0	0	0	0	504	
9	0	0	0	0	492	
10	0	0	0	0	512	
11	0	0	0	0	499	
12	0	0	0	0	507	
13	0	0	0	0	504	
14	0	0	0	0	492	
15	0	0	0	0	512	
0	0	0	0	0	497	
1	0	0	0	0	508	
2	0	0	0	0	504	
3	0	0	0	0	491	
4	0	0	0	0	513	
5	0	0	0	0	499	
6	0	0	0	0	510	
7	0	0	0	0	503	
8	0	0	0	0	485	
9	0	0	0	0	517	
10	0	0	0	0	501	
11	0	0	0	0	508	
12	0	0	0	0	505	
13	0	0	0	0	474	
14	0	0	0	0	524	
15	0	0	0	0	497	
0	0	0	0	0	507	
1	0	0	0	0	518	
2	0	0	0	0	470	
3	0	0	0	0	524	
4	0	0	0	0	499	
5	0	0	0	0	506	
6	0	0	0	0	511	
7	0	0	0	0	463	
8	0	0	0	0	534	
9	0	0	0	0	489	
10	0	0	0	0	515	
11	0	0	0	0	511	
12	0	0	0	0	467	
13	0	0	0	0	531	
14	0	0	0	0	484	
15	0	0	0	0	514	
0	0	0	0	0	511	
1	0	0	0	0	464	
2	0	0	0	0	534	
3	0	0	0	0	488	
4	0	0	0	0	514	
5	0	0	0	0	516	
6	0	0	0	0	466	
7	0	0	0	0	535	
8	0	0	0	0	491	
9	0	0	0	0	513	
10	0	0	0	0	513	
11	0	0	0	0	458	
12	0	0	0	0	534	
13	0	0	0	0	487	
14	0	0	0	0	513	
15	0	0	0	0	516	
0	0	0	0	0	457	
1	0	0	0	0	535	
2	0	0	0	0	488	
3	0	0	0	0	515	
4	0	0	0	0	513	
5	0	0	0	0	464	
6	0	0	0	0	539	
7	0	0	0	0	493	
8	0	0	0	0	510	
9	0	0	0	0	519	
10	0	0	0	0	465	
11	0	0	0	0	527	
12	0	0	0	0	494	
13	0	0	0	0	508	
14	0	0	0	0	517	
15	0	0	0	0	464	
0	0	0	0	0	528	
1	0	0	0	0	498	
2	0	0	0	0	508	
3	0	0	0	0	513	
4	0	0	0	0	468	
5	0	0	0	0	525	
6	0	0	0	0	498	
7	0	0	0	0	505	
8	0	0	0	0	509	
9	0	0	0	0	468	
10	0	0	0	0	523	
11	0	0	0	0	496	
12	0	0	0	0	509	
13	0	0	0	0	509	
14	0	0	0	0	477	
15	0	0	0	0	520	
0	0	0	0	0	500	
1	0	0	0	0	508	
2	0	0	0	0	509	
3	0	0	0	0	476	
4	0	0	0	0	523	
5	0	0	0	0	498	
6	0	0	0	0	511	
7	0	0	0	0	508	
8	0	0	0	0	476	
9	0	0	0	0	518	
10	0	0	0	0	500	
11	0	0	0	0	502	
12	0	0	0	0	506	
13	0	0	0	0	481	
14	0	0	0	0	519	
15	0	0	0	0	493	
0	0	0	0	0	507	
1	0	0	0	0	511	
2	0	0	0	0	483	
3	0	0	0	0	520	
4	0	0	0	0	496	
5	0	0	0	0	509	
6	0	0	0	0	513	
7	0	0	0	0	481	
8	0	0	0	0	521	
9	0	0	0	0	498	
10	0	0	0	0	499	
11	0	0	0	0	504	
12	0	0	0	0	479	
13	0	0	0	0	521	
14	0	0	0	0	501	
15	0	0	0	0	510	
0	0	0	0	0	508	
1	0	0	0	0	481	
2	0	0	0	0	521	
3	0	0	0	0	499	
4	0	0	0	0	505	
5	0	0	0	0	506	
6	0	0	0	0	483	
7	0	0	0	0	518	
8	0	0	0	0	502	
9	0	0	0	0	504	
10	0	0	0	0	510	
11	0	0	0	0	484	
12	0	0	0	0	519	
13	0	0	0	0	501	
14	0	0	0	0	506	
15	0	0	0	0	508	
0	0	0	0	0	482	
1	0	0	0	0	520	
2	0	0	0	0	501	
3	0	0	0	0	495	
4	0	0	0	0	511	
5	0	0	0	0	487	
6	0	0	0	0	523	
7	0	0	0	0	497	
8	0	0	0	0	506	
9	0	0	0	0	508	
10	0	0	0	0	483	
11	0	0	0	0	522	
12	0	0	0	0	501	
13	0	0	0	0	504	
14	0	0	0	0	509	
15	0	0	0	0	488	
0	0	0	0	0	521	
1	0	0	0	0	497	
2	0	0	0	0	505	
3	0	0	0	0	505	
4	0	0	0	0	488	
5	0	0	0	0	521	
6	0	0	0	0	496	
7	0	0	0	0	506	
8	0	0	0	0	508	
9	0	0	0	0	485	
10	0	0	0	0	523	
11	0	0	0	0	496	
12	0	0	0	0	509	
13	0	0	0	0	506	
14	0	0	0	0	488	
15	0	0	0	0	523	
0	0	0	0	0	496	
1	0	0	0	0	508	
2	0	0	0	0	508	
3	0	0	0	0	482	
4	0	0	0	0	521	
5	0	0	0	0	496	
6	0	0	0	0	506	
7	0	0	0	0	507	
8	0	0	0	0	483	
9	0	0	0	0	523	
10	0	0	0	0	496	
11	0	0	0	0	505	
12	0	0	0	0	509	
13	0	0	0	0	483	
14	0	0	0	0	523	
15	0	0	0	0	499	
0	0	0	0	0	505	
1	0	0	0	0	509	
2	0	0	0	0	483	
3	0	0	0	0	526	
4	0	0	0	0	496	
5	0	0	0	0	506	
6	0	0	0	0	510	
7	0	0	0	0	479	
8	0	0	0	0	528	
9	0	0	0	0	496	
10	0	0	0	0	504	
11	0	0	0	0	509	
12	0	0	0	0	478	
13	0	0	0	0	526	
14	0	0	0	0	499	
15	0	0	0	0	505	
0	0	0	0	0	509	
1	0	0	0	0	483	
2	0	0	0	0	522	
3	0	0	0	0	500	
4	0	0	0	0	509	
5	0	0	0	0	505	
6	0	0	0	0	483	
7	0	0	0	0	519	
8	0	0	0	0	498	
9	0	0	0	0	507	
10	0	0	0	0	507	
11	0	0	0	0	484	
12	0	0	0	0	520	
13	0	0	0	0	499	
14	0	0	0	0	507	
15	0	0	0	0	507	
0	0	0	0	0	481	
1	0	0	0	0	525	
2	0	0	0	0	498	
3	0	0	0	0	506	
4	0	0	0	0	508	
5	0	0	0	0	480	
6	0	0	0	0	521	
7	0	0	0	0	500	
8	0	0	0	0	505	
9	0	0	0	0	507	
10	0	0	0	0	483	
11	0	0	0	0	519	
12	0	0	0	0	496	
13	0	0	0	0	506	
14	0	0	0	0	504	
15	0	0	0	0	486	
0	0	0	0	0	517	
1	0	0	0	0	499	
2	0	0	0	0	507	
3	0	0	0	0	506	
4	0	0	0	0	484	
5	0	0	0	0	519	
6	0	0	0	0	497	
7	0	0	0	0	508	
8	0	0	0	0	507	
9	0	0	0	0	485	
10	0	0	0	0	521	
11	0	0	0	0	499	
12	0	0	0	0	510	
13	0	0	0	0	506	
14	0	0	0	0	483	
15	0	0	0	0	521	
0	0	0	0	0	496	
1	0	0	0	0	507	
2	0	0	0	0	505	
3	0	0	0	0	486	
4	0	0	0	0	517	
5	0	0	0	0	496	
6	0	0	0	0	510	
7	0	0	0	0	503	
8	0	0	0	0	487	
9	0	0	0	0	518	
10	0	0	0	0	500	
11	0	0	0	0	503	
12	0	0	0	0	507	
13	0	0	0	0	487	
14	0	0	0	0	522	
15	0	0	0	0	498	
0	0	0	0	0	504	
1	0	0	0	0	508	
2	0	0	0	0	486	
3	0	0	0	0	524	
4	0	0	0	0	498	
5	0	0	0	0	505	
6	0	0	0	0	510	
7	0	0	0	0	480	
8	0	0	0	0	524	
9	0	0	0	0	499	
