# OpenSignals Text File Format. Version 1
# {"98:D3:81:FD:6D:86": {"position": 0, "device": "bitalino_rev", "device name": "98:D3:81:FD:6D:86", "device connection": "BTH98:D3:81:FD:6D:86", "sampling rate": 100, "resolution": [4, 1, 1, 1, 1, 10], "firmware version": 1282, "comments": "", "keywords": "", "mode": 0, "sync interval": 2, "date": "2023-9-8", "time": "10:24:6.860", "channels": [1], "sensor": ["EMGBITREV"], "label": ["A1"], "column": ["nSeq", "I1", "I2", "O1", "O2", "A1"], "special": [{}], "digital IO": [0, 0, 1, 1]}}
# EndOfHeader
0	0	0	0	0	511	
1	0	0	0	0	524	
2	0	0	0	0	511	
3	0	0	0	0	494	
4	0	0	0	0	511	
5	0	0	0	0	472	
6	0	0	0	0	533	
7	0	0	0	0	503	
8	0	0	0	0	506	
9	0	0	0	0	508	
10	0	0	0	0	484	
11	0	0	0	0	536	
12	0	0	0	0	500	
13	0	0	0	0	478	
14	0	0	0	0	539	
15	0	0	0	0	466	
0	0	0	0	0	498	
1	0	0	0	0	511	
2	0	0	0	0	489	
3	0	0	0	0	500	
4	0	0	0	0	489	
5	0	0	0	0	499	
6	0	0	0	0	519	
7	0	0	0	0	467	
8	0	0	0	0	530	
9	0	0	0	0	473	
10	0	0	0	0	489	
11	0	0	0	0	506	
12	0	0	0	0	492	
13	0	0	0	0	487	
14	0	0	0	0	496	
15	0	0	0	0	526	
0	0	0	0	0	491	
1	0	0	0	0	503	
2	0	0	0	0	492	
3	0	0	0	0	484	
4	0	0	0	0	513	
5	0	0	0	0	512	
6	0	0	0	0	486	
7	0	0	0	0	525	
8	0	0	0	0	492	
9	0	0	0	0	519	
10	0	0	0	0	487	
11	0	0	0	0	503	
12	0	0	0	0	510	
13	0	0	0	0	499	
14	0	0	0	0	502	
15	0	0	0	0	504	
0	0	0	0	0	492	
1	0	0	0	0	507	
2	0	0	0	0	486	
3	0	0	0	0	536	
4	0	0	0	0	511	
5	0	0	0	0	470	
6	0	0	0	0	527	
7	0	0	0	0	486	
8	0	0	0	0	511	
9	0	0	0	0	512	
10	0	0	0	0	499	
11	0	0	0	0	515	
12	0	0	0	0	491	
13	0	0	0	0	495	
14	0	0	0	0	513	
15	0	0	0	0	505	
0	0	0	0	0	510	
1	0	0	0	0	496	
2	0	0	0	0	502	
3	0	0	0	0	493	
4	0	0	0	0	499	
5	0	0	0	0	510	
6	0	0	0	0	500	
7	0	0	0	0	488	
8	0	0	0	0	518	
9	0	0	0	0	496	
10	0	0	0	0	517	
11	0	0	0	0	487	
12	0	0	0	0	511	
13	0	0	0	0	504	
14	0	0	0	0	488	
15	0	0	0	0	519	
0	0	0	0	0	481	
1	0	0	0	0	504	
2	0	0	0	0	510	
3	0	0	0	0	503	
4	0	0	0	0	536	
5	0	0	0	0	496	
6	0	0	0	0	512	
7	0	0	0	0	500	
8	0	0	0	0	487	
9	0	0	0	0	501	
10	0	0	0	0	496	
11	0	0	0	0	508	
12	0	0	0	0	505	
13	0	0	0	0	501	
14	0	0	0	0	519	
15	0	0	0	0	482	
0	0	0	0	0	515	
1	0	0	0	0	515	
2	0	0	0	0	494	
3	0	0	0	0	522	
4	0	0	0	0	486	
5	0	0	0	0	512	
6	0	0	0	0	505	
7	0	0	0	0	496	
8	0	0	0	0	516	
9	0	0	0	0	487	
10	0	0	0	0	506	
11	0	0	0	0	505	
12	0	0	0	0	496	
13	0	0	0	0	520	
14	0	0	0	0	481	
15	0	0	0	0	509	
0	0	0	0	0	507	
1	0	0	0	0	493	
2	0	0	0	0	513	
3	0	0	0	0	487	
4	0	0	0	0	513	
5	0	0	0	0	496	
6	0	0	0	0	503	
7	0	0	0	0	547	
8	0	0	0	0	476	
9	0	0	0	0	509	
10	0	0	0	0	499	
11	0	0	0	0	503	
12	0	0	0	0	512	
13	0	0	0	0	517	
14	0	0	0	0	512	
15	0	0	0	0	508	
0	0	0	0	0	504	
1	0	0	0	0	522	
2	0	0	0	0	505	
3	0	0	0	0	502	
4	0	0	0	0	512	
5	0	0	0	0	497	
6	0	0	0	0	527	
7	0	0	0	0	487	
8	0	0	0	0	503	
9	0	0	0	0	523	
10	0	0	0	0	495	
11	0	0	0	0	520	
12	0	0	0	0	486	
13	0	0	0	0	505	
14	0	0	0	0	527	
15	0	0	0	0	488	
0	0	0	0	0	510	
1	0	0	0	0	504	
2	0	0	0	0	515	
3	0	0	0	0	497	
4	0	0	0	0	498	
5	0	0	0	0	519	
6	0	0	0	0	505	
7	0	0	0	0	504	
8	0	0	0	0	505	
9	0	0	0	0	490	
10	0	0	0	0	524	
11	0	0	0	0	506	
12	0	0	0	0	506	
13	0	0	0	0	500	
14	0	0	0	0	496	
15	0	0	0	0	516	
0	0	0	0	0	481	
1	0	0	0	0	508	
2	0	0	0	0	513	
3	0	0	0	0	539	
4	0	0	0	0	496	
5	0	0	0	0	503	
6	0	0	0	0	509	
7	0	0	0	0	506	
8	0	0	0	0	495	
9	0	0	0	0	515	
10	0	0	0	0	478	
11	0	0	0	0	526	
12	0	0	0	0	497	
13	0	0	0	0	500	
14	0	0	0	0	490	
15	0	0	0	0	492	
0	0	0	0	0	510	
1	0	0	0	0	499	
2	0	0	0	0	494	
3	0	0	0	0	517	
4	0	0	0	0	474	
5	0	0	0	0	525	
6	0	0	0	0	491	
7	0	0	0	0	524	
8	0	0	0	0	507	
9	0	0	0	0	478	
10	0	0	0	0	535	
11	0	0	0	0	489	
12	0	0	0	0	511	
13	0	0	0	0	494	
14	0	0	0	0	473	
15	0	0	0	0	524	
0	0	0	0	0	471	
1	0	0	0	0	532	
2	0	0	0	0	499	
3	0	0	0	0	477	
4	0	0	0	0	518	
5	0	0	0	0	492	
6	0	0	0	0	509	
7	0	0	0	0	520	
8	0	0	0	0	494	
9	0	0	0	0	512	
10	0	0	0	0	509	
11	0	0	0	0	484	
12	0	0	0	0	499	
13	0	0	0	0	503	
14	0	0	0	0	527	
15	0	0	0	0	519	
0	0	0	0	0	521	
1	0	0	0	0	513	
2	0	0	0	0	481	
3	0	0	0	0	502	
4	0	0	0	0	507	
5	0	0	0	0	487	
6	0	0	0	0	522	
7	0	0	0	0	472	
8	0	0	0	0	512	
9	0	0	0	0	507	
10	0	0	0	0	494	
11	0	0	0	0	501	
12	0	0	0	0	481	
13	0	0	0	0	506	
14	0	0	0	0	520	
15	0	0	0	0	493	
0	0	0	0	0	523	
1	0	0	0	0	484	
2	0	0	0	0	515	
3	0	0	0	0	513	
4	0	0	0	0	498	
5	0	0	0	0	503	
6	0	0	0	0	487	
7	0	0	0	0	504	
8	0	0	0	0	497	
9	0	0	0	0	491	
10	0	0	0	0	515	
11	0	0	0	0	492	
12	0	0	0	0	526	
13	0	0	0	0	505	
14	0	0	0	0	485	
15	0	0	0	0	511	
0	0	0	0	0	483	
1	0	0	0	0	521	
2	0	0	0	0	494	
3	0	0	0	0	494	
4	0	0	0	0	534	
5	0	0	0	0	483	
6	0	0	0	0	517	
7	0	0	0	0	510	
8	0	0	0	0	495	
9	0	0	0	0	543	
10	0	0	0	0	467	
11	0	0	0	0	525	
12	0	0	0	0	529	
13	0	0	0	0	501	
14	0	0	0	0	512	
15	0	0	0	0	462	
0	0	0	0	0	525	
1	0	0	0	0	505	
2	0	0	0	0	501	
3	0	0	0	0	496	
4	0	0	0	0	471	
5	0	0	0	0	529	
6	0	0	0	0	496	
7	0	0	0	0	498	
8	0	0	0	0	519	
9	0	0	0	0	469	
10	0	0	0	0	523	
11	0	0	0	0	517	
12	0	0	0	0	492	
13	0	0	0	0	514	
14	0	0	0	0	465	
15	0	0	0	0	527	
0	0	0	0	0	504	
1	0	0	0	0	502	
2	0	0	0	0	515	
3	0	0	0	0	473	
4	0	0	0	0	534	
5	0	0	0	0	504	
6	0	0	0	0	496	
7	0	0	0	0	523	
8	0	0	0	0	487	
9	0	0	0	0	520	
10	0	0	0	0	492	
11	0	0	0	0	505	
12	0	0	0	0	531	
13	0	0	0	0	490	
14	0	0	0	0	521	
15	0	0	0	0	494	
0	0	0	0	0	503	
1	0	0	0	0	524	
2	0	0	0	0	467	
3	0	0	0	0	530	
4	0	0	0	0	494	
5	0	0	0	0	481	
6	0	0	0	0	512	
7	0	0	0	0	463	
8	0	0	0	0	534	
9	0	0	0	0	496	
10	0	0	0	0	520	
11	0	0	0	0	527	
12	0	0	0	0	464	
13	0	0	0	0	527	
14	0	0	0	0	504	
15	0	0	0	0	506	
0	0	0	0	0	512	
1	0	0	0	0	464	
2	0	0	0	0	530	
3	0	0	0	0	498	
4	0	0	0	0	504	
5	0	0	0	0	528	
6	0	0	0	0	461	
7	0	0	0	0	533	
8	0	0	0	0	509	
9	0	0	0	0	499	
10	0	0	0	0	512	
11	0	0	0	0	476	
12	0	0	0	0	522	
13	0	0	0	0	535	
14	0	0	0	0	498	
15	0	0	0	0	526	
0	0	0	0	0	470	
1	0	0	0	0	526	
2	0	0	0	0	502	
3	0	0	0	0	512	
4	0	0	0	0	528	
5	0	0	0	0	475	
6	0	0	0	0	530	
7	0	0	0	0	494	
8	0	0	0	0	503	
9	0	0	0	0	531	
10	0	0	0	0	468	
11	0	0	0	0	531	
12	0	0	0	0	504	
13	0	0	0	0	496	
14	0	0	0	0	526	
15	0	0	0	0	476	
0	0	0	0	0	522	
1	0	0	0	0	494	
2	0	0	0	0	494	
3	0	0	0	0	520	
4	0	0	0	0	487	
5	0	0	0	0	517	
6	0	0	0	0	504	
7	0	0	0	0	500	
8	0	0	0	0	528	
9	0	0	0	0	482	
10	0	0	0	0	531	
11	0	0	0	0	502	
12	0	0	0	0	496	
13	0	0	0	0	515	
14	0	0	0	0	490	
15	0	0	0	0	531	
0	0	0	0	0	510	
1	0	0	0	0	493	
2	0	0	0	0	521	
3	0	0	0	0	459	
4	0	0	0	0	534	
5	0	0	0	0	501	
6	0	0	0	0	502	
7	0	0	0	0	524	
8	0	0	0	0	475	
9	0	0	0	0	525	
10	0	0	0	0	508	
11	0	0	0	0	495	
12	0	0	0	0	514	
13	0	0	0	0	467	
14	0	0	0	0	543	
15	0	0	0	0	505	
0	0	0	0	0	503	
1	0	0	0	0	512	
2	0	0	0	0	488	
3	0	0	0	0	519	
4	0	0	0	0	492	
5	0	0	0	0	491	
6	0	0	0	0	519	
7	0	0	0	0	481	
8	0	0	0	0	529	
9	0	0	0	0	500	
10	0	0	0	0	498	
11	0	0	0	0	523	
12	0	0	0	0	464	
13	0	0	0	0	537	
14	0	0	0	0	500	
15	0	0	0	0	495	
0	0	0	0	0	522	
1	0	0	0	0	467	
2	0	0	0	0	531	
3	0	0	0	0	495	
4	0	0	0	0	511	
5	0	0	0	0	527	
6	0	0	0	0	464	
7	0	0	0	0	527	
8	0	0	0	0	494	
9	0	0	0	0	511	
10	0	0	0	0	512	
11	0	0	0	0	473	
12	0	0	0	0	518	
13	0	0	0	0	472	
14	0	0	0	0	492	
15	0	0	0	0	503	
0	0	0	0	0	474	
1	0	0	0	0	532	
2	0	0	0	0	518	
3	0	0	0	0	494	
4	0	0	0	0	516	
5	0	0	0	0	481	
6	0	0	0	0	530	
7	0	0	0	0	490	
8	0	0	0	0	476	
9	0	0	0	0	517	
10	0	0	0	0	464	
11	0	0	0	0	526	
12	0	0	0	0	504	
13	0	0	0	0	484	
14	0	0	0	0	512	
15	0	0	0	0	476	
0	0	0	0	0	523	
1	0	0	0	0	505	
2	0	0	0	0	512	
3	0	0	0	0	535	
4	0	0	0	0	445	
5	0	0	0	0	518	
6	0	0	0	0	523	
7	0	0	0	0	489	
8	0	0	0	0	528	
9	0	0	0	0	463	
10	0	0	0	0	534	
11	0	0	0	0	521	
12	0	0	0	0	499	
13	0	0	0	0	523	
14	0	0	0	0	464	
15	0	0	0	0	539	
0	0	0	0	0	507	
1	0	0	0	0	491	
2	0	0	0	0	523	
3	0	0	0	0	483	
4	0	0	0	0	526	
5	0	0	0	0	496	
6	0	0	0	0	486	
7	0	0	0	0	518	
8	0	0	0	0	479	
9	0	0	0	0	531	
10	0	0	0	0	499	
11	0	0	0	0	481	
12	0	0	0	0	531	
13	0	0	0	0	466	
14	0	0	0	0	530	
15	0	0	0	0	512	
0	0	0	0	0	495	
1	0	0	0	0	542	
2	0	0	0	0	478	
3	0	0	0	0	536	
4	0	0	0	0	497	
5	0	0	0	0	497	
6	0	0	0	0	519	
7	0	0	0	0	472	
8	0	0	0	0	527	
9	0	0	0	0	497	
10	0	0	0	0	500	
11	0	0	0	0	509	
12	0	0	0	0	470	
13	0	0	0	0	536	
14	0	0	0	0	494	
15	0	0	0	0	497	
0	0	0	0	0	518	
1	0	0	0	0	485	
2	0	0	0	0	536	
3	0	0	0	0	494	
4	0	0	0	0	490	
5	0	0	0	0	522	
6	0	0	0	0	475	
7	0	0	0	0	529	
8	0	0	0	0	498	
9	0	0	0	0	487	
10	0	0	0	0	524	
11	0	0	0	0	469	
12	0	0	0	0	525	
13	0	0	0	0	505	
14	0	0	0	0	477	
15	0	0	0	0	516	
0	0	0	0	0	458	
1	0	0	0	0	531	
2	0	0	0	0	505	
3	0	0	0	0	494	
4	0	0	0	0	513	
5	0	0	0	0	479	
6	0	0	0	0	516	
7	0	0	0	0	504	
8	0	0	0	0	499	
9	0	0	0	0	519	
10	0	0	0	0	468	
11	0	0	0	0	540	
12	0	0	0	0	518	
13	0	0	0	0	487	
14	0	0	0	0	524	
15	0	0	0	0	474	
0	0	0	0	0	523	
1	0	0	0	0	505	
2	0	0	0	0	495	
3	0	0	0	0	543	
4	0	0	0	0	465	
5	0	0	0	0	536	
6	0	0	0	0	508	
7	0	0	0	0	491	
8	0	0	0	0	545	
9	0	0	0	0	464	
10	0	0	0	0	530	
11	0	0	0	0	507	
12	0	0	0	0	486	
13	0	0	0	0	521	
14	0	0	0	0	474	
15	0	0	0	0	525	
0	0	0	0	0	496	
1	0	0	0	0	492	
2	0	0	0	0	518	
3	0	0	0	0	483	
4	0	0	0	0	536	
5	0	0	0	0	499	
6	0	0	0	0	487	
7	0	0	0	0	521	
8	0	0	0	0	471	
9	0	0	0	0	529	
10	0	0	0	0	513	
11	0	0	0	0	483	
12	0	0	0	0	507	
13	0	0	0	0	470	
14	0	0	0	0	529	
15	0	0	0	0	513	
0	0	0	0	0	487	
1	0	0	0	0	521	
2	0	0	0	0	460	
3	0	0	0	0	539	
4	0	0	0	0	527	
5	0	0	0	0	510	
6	0	0	0	0	521	
7	0	0	0	0	465	
8	0	0	0	0	536	
9	0	0	0	0	510	
10	0	0	0	0	496	
11	0	0	0	0	539	
12	0	0	0	0	479	
13	0	0	0	0	521	
14	0	0	0	0	513	
15	0	0	0	0	500	
0	0	0	0	0	521	
1	0	0	0	0	473	
2	0	0	0	0	526	
3	0	0	0	0	500	
4	0	0	0	0	508	
5	0	0	0	0	514	
6	0	0	0	0	473	
7	0	0	0	0	530	
8	0	0	0	0	502	
9	0	0	0	0	493	
10	0	0	0	0	529	
11	0	0	0	0	470	
12	0	0	0	0	517	
13	0	0	0	0	511	
14	0	0	0	0	488	
15	0	0	0	0	525	
0	0	0	0	0	471	
1	0	0	0	0	525	
2	0	0	0	0	500	
3	0	0	0	0	488	
4	0	0	0	0	534	
5	0	0	0	0	471	
6	0	0	0	0	512	
7	0	0	0	0	510	
8	0	0	0	0	493	
9	0	0	0	0	521	
10	0	0	0	0	474	
11	0	0	0	0	516	
12	0	0	0	0	495	
13	0	0	0	0	499	
14	0	0	0	0	531	
15	0	0	0	0	458	
0	0	0	0	0	537	
1	0	0	0	0	509	
2	0	0	0	0	488	
3	0	0	0	0	510	
4	0	0	0	0	478	
5	0	0	0	0	521	
6	0	0	0	0	504	
7	0	0	0	0	495	
8	0	0	0	0	518	
9	0	0	0	0	464	
10	0	0	0	0	519	
11	0	0	0	0	496	
12	0	0	0	0	498	
13	0	0	0	0	511	
14	0	0	0	0	470	
15	0	0	0	0	526	
0	0	0	0	0	507	
1	0	0	0	0	494	
2	0	0	0	0	526	
3	0	0	0	0	471	
4	0	0	0	0	532	
5	0	0	0	0	512	
6	0	0	0	0	486	
7	0	0	0	0	558	
8	0	0	0	0	465	
9	0	0	0	0	521	
10	0	0	0	0	513	
11	0	0	0	0	487	
12	0	0	0	0	509	
13	0	0	0	0	482	
14	0	0	0	0	523	
15	0	0	0	0	502	
0	0	0	0	0	503	
1	0	0	0	0	519	
2	0	0	0	0	473	
3	0	0	0	0	538	
4	0	0	0	0	499	
5	0	0	0	0	486	
6	0	0	0	0	519	
7	0	0	0	0	485	
8	0	0	0	0	525	
9	0	0	0	0	511	
10	0	0	0	0	496	
11	0	0	0	0	524	
12	0	0	0	0	467	
13	0	0	0	0	535	
14	0	0	0	0	496	
15	0	0	0	0	486	
0	0	0	0	0	532	
1	0	0	0	0	470	
2	0	0	0	0	543	
3	0	0	0	0	504	
4	0	0	0	0	487	
5	0	0	0	0	521	
6	0	0	0	0	471	
7	0	0	0	0	523	
8	0	0	0	0	512	
9	0	0	0	0	486	
10	0	0	0	0	508	
11	0	0	0	0	480	
12	0	0	0	0	530	
13	0	0	0	0	507	
14	0	0	0	0	492	
15	0	0	0	0	510	
0	0	0	0	0	470	
1	0	0	0	0	527	
2	0	0	0	0	498	
3	0	0	0	0	492	
4	0	0	0	0	517	
5	0	0	0	0	479	
6	0	0	0	0	528	
7	0	0	0	0	507	
8	0	0	0	0	503	
9	0	0	0	0	516	
10	0	0	0	0	470	
11	0	0	0	0	524	
12	0	0	0	0	505	
13	0	0	0	0	486	
14	0	0	0	0	520	
15	0	0	0	0	492	
0	0	0	0	0	533	
1	0	0	0	0	517	
2	0	0	0	0	496	
3	0	0	0	0	529	
4	0	0	0	0	455	
5	0	0	0	0	529	
6	0	0	0	0	502	
7	0	0	0	0	498	
8	0	0	0	0	515	
9	0	0	0	0	470	
10	0	0	0	0	528	
11	0	0	0	0	502	
12	0	0	0	0	493	
13	0	0	0	0	506	
14	0	0	0	0	465	
15	0	0	0	0	532	
0	0	0	0	0	503	
1	0	0	0	0	495	
2	0	0	0	0	514	
3	0	0	0	0	459	
4	0	0	0	0	519	
5	0	0	0	0	509	
6	0	0	0	0	487	
7	0	0	0	0	521	
8	0	0	0	0	455	
9	0	0	0	0	521	
10	0	0	0	0	507	
11	0	0	0	0	492	
12	0	0	0	0	515	
13	0	0	0	0	479	
14	0	0	0	0	531	
15	0	0	0	0	510	
0	0	0	0	0	481	
1	0	0	0	0	526	
2	0	0	0	0	477	
3	0	0	0	0	533	
4	0	0	0	0	502	
5	0	0	0	0	486	
6	0	0	0	0	514	
7	0	0	0	0	487	
8	0	0	0	0	575	
9	0	0	0	0	507	
10	0	0	0	0	498	
11	0	0	0	0	520	
12	0	0	0	0	471	
13	0	0	0	0	533	
14	0	0	0	0	498	
15	0	0	0	0	503	
0	0	0	0	0	535	
1	0	0	0	0	457	
2	0	0	0	0	519	
3	0	0	0	0	506	
4	0	0	0	0	478	
5	0	0	0	0	539	
6	0	0	0	0	472	
7	0	0	0	0	538	
8	0	0	0	0	511	
9	0	0	0	0	481	
10	0	0	0	0	529	
11	0	0	0	0	473	
12	0	0	0	0	529	
13	0	0	0	0	528	
14	0	0	0	0	502	
15	0	0	0	0	531	
0	0	0	0	0	478	
1	0	0	0	0	530	
2	0	0	0	0	524	
3	0	0	0	0	504	
4	0	0	0	0	515	
5	0	0	0	0	463	
6	0	0	0	0	529	
7	0	0	0	0	497	
8	0	0	0	0	482	
9	0	0	0	0	532	
10	0	0	0	0	468	
11	0	0	0	0	542	
12	0	0	0	0	518	
13	0	0	0	0	485	
14	0	0	0	0	512	
15	0	0	0	0	475	
0	0	0	0	0	536	
1	0	0	0	0	508	
2	0	0	0	0	510	
3	0	0	0	0	524	
4	0	0	0	0	468	
5	0	0	0	0	519	
6	0	0	0	0	487	
7	0	0	0	0	491	
8	0	0	0	0	512	
9	0	0	0	0	462	
10	0	0	0	0	531	
11	0	0	0	0	519	
12	0	0	0	0	488	
13	0	0	0	0	524	
14	0	0	0	0	486	
15	0	0	0	0	525	
0	0	0	0	0	499	
1	0	0	0	0	479	
2	0	0	0	0	522	
3	0	0	0	0	467	
4	0	0	0	0	530	
5	0	0	0	0	502	
6	0	0	0	0	491	
7	0	0	0	0	525	
8	0	0	0	0	486	
9	0	0	0	0	515	
10	0	0	0	0	526	
11	0	0	0	0	495	
12	0	0	0	0	519	
13	0	0	0	0	457	
14	0	0	0	0	516	
15	0	0	0	0	516	
0	0	0	0	0	488	
1	0	0	0	0	525	
2	0	0	0	0	467	
3	0	0	0	0	518	
4	0	0	0	0	522	
5	0	0	0	0	486	
6	0	0	0	0	552	
7	0	0	0	0	472	
8	0	0	0	0	534	
9	0	0	0	0	503	
10	0	0	0	0	495	
11	0	0	0	0	538	
12	0	0	0	0	477	
13	0	0	0	0	513	
14	0	0	0	0	511	
15	0	0	0	0	490	
0	0	0	0	0	514	
1	0	0	0	0	475	
2	0	0	0	0	539	
3	0	0	0	0	505	
4	0	0	0	0	504	
5	0	0	0	0	520	
6	0	0	0	0	470	
7	0	0	0	0	557	
8	0	0	0	0	495	
9	0	0	0	0	502	
10	0	0	0	0	513	
11	0	0	0	0	465	
12	0	0	0	0	568	
13	0	0	0	0	483	
14	0	0	0	0	508	
15	0	0	0	0	517	
0	0	0	0	0	462	
1	0	0	0	0	520	
2	0	0	0	0	495	
3	0	0	0	0	505	
4	0	0	0	0	504	
5	0	0	0	0	467	
6	0	0	0	0	536	
7	0	0	0	0	490	
8	0	0	0	0	517	
9	0	0	0	0	491	
10	0	0	0	0	478	
11	0	0	0	0	526	
12	0	0	0	0	493	
13	0	0	0	0	503	
14	0	0	0	0	520	
15	0	0	0	0	467	
0	0	0	0	0	515	
1	0	0	0	0	492	
2	0	0	0	0	501	
3	0	0	0	0	513	
4	0	0	0	0	466	
5	0	0	0	0	527	
6	0	0	0	0	486	
7	0	0	0	0	505	
8	0	0	0	0	536	
9	0	0	0	0	467	
10	0	0	0	0	522	
11	0	0	0	0	495	
12	0	0	0	0	524	
13	0	0	0	0	514	
14	0	0	0	0	469	
15	0	0	0	0	536	
0	0	0	0	0	485	
1	0	0	0	0	485	
2	0	0	0	0	549	
3	0	0	0	0	471	
4	0	0	0	0	527	
5	0	0	0	0	499	
6	0	0	0	0	511	
7	0	0	0	0	523	
8	0	0	0	0	455	
9	0	0	0	0	541	
10	0	0	0	0	503	
11	0	0	0	0	513	
12	0	0	0	0	522	
13	0	0	0	0	478	
14	0	0	0	0	527	
15	0	0	0	0	491	
0	0	0	0	0	494	
1	0	0	0	0	519	
2	0	0	0	0	463	
3	0	0	0	0	525	
4	0	0	0	0	489	
5	0	0	0	0	494	
6	0	0	0	0	519	
7	0	0	0	0	458	
8	0	0	0	0	534	
9	0	0	0	0	490	
10	0	0	0	0	525	
11	0	0	0	0	510	
12	0	0	0	0	470	
13	0	0	0	0	527	
14	0	0	0	0	488	
15	0	0	0	0	488	
0	0	0	0	0	511	
1	0	0	0	0	476	
2	0	0	0	0	532	
3	0	0	0	0	486	
4	0	0	0	0	506	
5	0	0	0	0	516	
6	0	0	0	0	463	
7	0	0	0	0	525	
8	0	0	0	0	495	
9	0	0	0	0	479	
10	0	0	0	0	516	
11	0	0	0	0	470	
12	0	0	0	0	527	
13	0	0	0	0	490	
14	0	0	0	0	503	
15	0	0	0	0	520	
0	0	0	0	0	477	
1	0	0	0	0	542	
2	0	0	0	0	504	
3	0	0	0	0	512	
4	0	0	0	0	512	
5	0	0	0	0	467	
6	0	0	0	0	534	
7	0	0	0	0	486	
8	0	0	0	0	505	
9	0	0	0	0	527	
10	0	0	0	0	472	
11	0	0	0	0	539	
12	0	0	0	0	508	
13	0	0	0	0	505	
14	0	0	0	0	515	
15	0	0	0	0	470	
0	0	0	0	0	534	
1	0	0	0	0	496	
2	0	0	0	0	499	
3	0	0	0	0	508	
4	0	0	0	0	478	
5	0	0	0	0	534	
6	0	0	0	0	486	
7	0	0	0	0	503	
8	0	0	0	0	513	
9	0	0	0	0	476	
10	0	0	0	0	523	
11	0	0	0	0	497	
12	0	0	0	0	504	
13	0	0	0	0	515	
14	0	0	0	0	475	
15	0	0	0	0	534	
0	0	0	0	0	499	
1	0	0	0	0	502	
2	0	0	0	0	536	
3	0	0	0	0	501	
4	0	0	0	0	527	
5	0	0	0	0	505	
6	0	0	0	0	501	
7	0	0	0	0	514	
8	0	0	0	0	462	
9	0	0	0	0	537	
10	0	0	0	0	490	
11	0	0	0	0	500	
12	0	0	0	0	510	
13	0	0	0	0	483	
14	0	0	0	0	522	
15	0	0	0	0	498	
0	0	0	0	0	524	
1	0	0	0	0	505	
2	0	0	0	0	457	
3	0	0	0	0	534	
4	0	0	0	0	495	
5	0	0	0	0	502	
6	0	0	0	0	519	
7	0	0	0	0	477	
8	0	0	0	0	521	
9	0	0	0	0	512	
10	0	0	0	0	490	
11	0	0	0	0	526	
12	0	0	0	0	481	
13	0	0	0	0	528	
14	0	0	0	0	499	
15	0	0	0	0	501	
0	0	0	0	0	526	
1	0	0	0	0	484	
2	0	0	0	0	526	
3	0	0	0	0	499	
4	0	0	0	0	503	
5	0	0	0	0	519	
6	0	0	0	0	475	
7	0	0	0	0	519	
8	0	0	0	0	501	
9	0	0	0	0	509	
10	0	0	0	0	528	
11	0	0	0	0	480	
12	0	0	0	0	517	
13	0	0	0	0	503	
14	0	0	0	0	497	
15	0	0	0	0	516	
0	0	0	0	0	483	
1	0	0	0	0	518	
2	0	0	0	0	499	
3	0	0	0	0	498	
4	0	0	0	0	508	
5	0	0	0	0	472	
6	0	0	0	0	534	
7	0	0	0	0	510	
8	0	0	0	0	499	
9	0	0	0	0	503	
10	0	0	0	0	470	
11	0	0	0	0	536	
12	0	0	0	0	495	
13	0	0	0	0	499	
14	0	0	0	0	519	
15	0	0	0	0	469	
0	0	0	0	0	526	
1	0	0	0	0	498	
2	0	0	0	0	511	
3	0	0	0	0	514	
4	0	0	0	0	468	
5	0	0	0	0	523	
6	0	0	0	0	493	
7	0	0	0	0	501	
8	0	0	0	0	517	
9	0	0	0	0	487	
10	0	0	0	0	527	
11	0	0	0	0	499	
12	0	0	0	0	479	
13	0	0	0	0	522	
14	0	0	0	0	458	
15	0	0	0	0	532	
0	0	0	0	0	492	
1	0	0	0	0	502	
2	0	0	0	0	513	
3	0	0	0	0	475	
4	0	0	0	0	521	
5	0	0	0	0	494	
6	0	0	0	0	507	
7	0	0	0	0	527	
8	0	0	0	0	463	
9	0	0	0	0	527	
10	0	0	0	0	504	
11	0	0	0	0	499	
12	0	0	0	0	510	
13	0	0	0	0	474	
14	0	0	0	0	512	
15	0	0	0	0	492	
0	0	0	0	0	504	
1	0	0	0	0	508	
2	0	0	0	0	459	
3	0	0	0	0	519	
4	0	0	0	0	492	
5	0	0	0	0	496	
6	0	0	0	0	527	
7	0	0	0	0	472	
8	0	0	0	0	525	
9	0	0	0	0	506	
10	0	0	0	0	500	
11	0	0	0	0	534	
12	0	0	0	0	489	
13	0	0	0	0	527	
14	0	0	0	0	508	
15	0	0	0	0	489	
0	0	0	0	0	517	
1	0	0	0	0	472	
2	0	0	0	0	522	
3	0	0	0	0	489	
4	0	0	0	0	513	
5	0	0	0	0	529	
6	0	0	0	0	477	
7	0	0	0	0	521	
8	0	0	0	0	514	
9	0	0	0	0	511	
10	0	0	0	0	522	
11	0	0	0	0	472	
12	0	0	0	0	523	
13	0	0	0	0	510	
14	0	0	0	0	487	
15	0	0	0	0	521	
0	0	0	0	0	475	
1	0	0	0	0	536	
2	0	0	0	0	494	
3	0	0	0	0	499	
4	0	0	0	0	524	
5	0	0	0	0	475	
6	0	0	0	0	530	
7	0	0	0	0	516	
8	0	0	0	0	499	
9	0	0	0	0	494	
10	0	0	0	0	482	
11	0	0	0	0	542	
12	0	0	0	0	499	
13	0	0	0	0	489	
14	0	0	0	0	522	
15	0	0	0	0	478	
0	0	0	0	0	530	
1	0	0	0	0	501	
2	0	0	0	0	503	
3	0	0	0	0	516	
4	0	0	0	0	483	
5	0	0	0	0	533	
6	0	0	0	0	509	
7	0	0	0	0	493	
8	0	0	0	0	508	
9	0	0	0	0	484	
10	0	0	0	0	527	
11	0	0	0	0	495	
12	0	0	0	0	507	
13	0	0	0	0	513	
14	0	0	0	0	479	
15	0	0	0	0	525	
0	0	0	0	0	497	
1	0	0	0	0	486	
2	0	0	0	0	512	
3	0	0	0	0	477	
4	0	0	0	0	525	
5	0	0	0	0	489	
6	0	0	0	0	494	
7	0	0	0	0	524	
8	0	0	0	0	465	
9	0	0	0	0	520	
10	0	0	0	0	499	
11	0	0	0	0	501	
12	0	0	0	0	509	
13	0	0	0	0	476	
14	0	0	0	0	548	
15	0	0	0	0	500	
0	0	0	0	0	497	
1	0	0	0	0	512	
2	0	0	0	0	476	
3	0	0	0	0	532	
4	0	0	0	0	520	
5	0	0	0	0	503	
6	0	0	0	0	520	
7	0	0	0	0	474	
8	0	0	0	0	520	
9	0	0	0	0	488	
10	0	0	0	0	496	
11	0	0	0	0	515	
12	0	0	0	0	477	
13	0	0	0	0	531	
14	0	0	0	0	513	
15	0	0	0	0	501	
0	0	0	0	0	525	
1	0	0	0	0	484	
2	0	0	0	0	527	
3	0	0	0	0	508	
4	0	0	0	0	485	
5	0	0	0	0	519	
6	0	0	0	0	472	
7	0	0	0	0	523	
8	0	0	0	0	494	
9	0	0	0	0	488	
10	0	0	0	0	521	
11	0	0	0	0	476	
12	0	0	0	0	513	
13	0	0	0	0	486	
14	0	0	0	0	496	
15	0	0	0	0	504	
0	0	0	0	0	475	
1	0	0	0	0	532	
2	0	0	0	0	495	
3	0	0	0	0	513	
4	0	0	0	0	514	
5	0	0	0	0	470	
6	0	0	0	0	526	
7	0	0	0	0	505	
8	0	0	0	0	487	
9	0	0	0	0	527	
10	0	0	0	0	475	
11	0	0	0	0	522	
12	0	0	0	0	514	
13	0	0	0	0	508	
14	0	0	0	0	543	
15	0	0	0	0	478	
0	0	0	0	0	519	
1	0	0	0	0	516	
2	0	0	0	0	523	
3	0	0	0	0	513	
4	0	0	0	0	474	
5	0	0	0	0	526	
6	0	0	0	0	493	
7	0	0	0	0	494	
8	0	0	0	0	532	
9	0	0	0	0	470	
10	0	0	0	0	536	
11	0	0	0	0	505	
12	0	0	0	0	491	
13	0	0	0	0	511	
14	0	0	0	0	476	
15	0	0	0	0	518	
0	0	0	0	0	497	
1	0	0	0	0	510	
2	0	0	0	0	511	
3	0	0	0	0	485	
4	0	0	0	0	535	
5	0	0	0	0	495	
6	0	0	0	0	501	
7	0	0	0	0	525	
8	0	0	0	0	479	
9	0	0	0	0	538	
10	0	0	0	0	503	
11	0	0	0	0	498	
12	0	0	0	0	532	
13	0	0	0	0	471	
14	0	0	0	0	530	
15	0	0	0	0	510	
0	0	0	0	0	512	
1	0	0	0	0	513	
2	0	0	0	0	478	
3	0	0	0	0	517	
4	0	0	0	0	499	
5	0	0	0	0	495	
6	0	0	0	0	517	
7	0	0	0	0	490	
8	0	0	0	0	528	
9	0	0	0	0	506	
10	0	0	0	0	496	
11	0	0	0	0	526	
12	0	0	0	0	483	
13	0	0	0	0	537	
14	0	0	0	0	504	
15	0	0	0	0	504	
0	0	0	0	0	511	
1	0	0	0	0	468	
2	0	0	0	0	522	
3	0	0	0	0	507	
4	0	0	0	0	498	
5	0	0	0	0	514	
6	0	0	0	0	478	
7	0	0	0	0	515	
8	0	0	0	0	498	
9	0	0	0	0	499	
10	0	0	0	0	518	
11	0	0	0	0	476	
12	0	0	0	0	525	
13	0	0	0	0	485	
14	0	0	0	0	515	
15	0	0	0	0	517	
0	0	0	0	0	466	
1	0	0	0	0	521	
2	0	0	0	0	506	
3	0	0	0	0	498	
4	0	0	0	0	512	
5	0	0	0	0	477	
6	0	0	0	0	528	
7	0	0	0	0	511	
8	0	0	0	0	509	
9	0	0	0	0	519	
10	0	0	0	0	477	
11	0	0	0	0	536	
12	0	0	0	0	499	
13	0	0	0	0	501	
14	0	0	0	0	507	
15	0	0	0	0	488	
0	0	0	0	0	528	
1	0	0	0	0	499	
2	0	0	0	0	495	
3	0	0	0	0	504	
4	0	0	0	0	484	
5	0	0	0	0	517	
6	0	0	0	0	503	
7	0	0	0	0	499	
8	0	0	0	0	512	
9	0	0	0	0	479	
10	0	0	0	0	559	
11	0	0	0	0	516	
12	0	0	0	0	485	
13	0	0	0	0	512	
14	0	0	0	0	486	
15	0	0	0	0	526	
0	0	0	0	0	503	
1	0	0	0	0	501	
2	0	0	0	0	509	
3	0	0	0	0	477	
4	0	0	0	0	548	
5	0	0	0	0	493	
6	0	0	0	0	495	
7	0	0	0	0	519	
8	0	0	0	0	477	
9	0	0	0	0	519	
10	0	0	0	0	512	
11	0	0	0	0	502	
12	0	0	0	0	508	
13	0	0	0	0	468	
14	0	0	0	0	529	
15	0	0	0	0	499	
0	0	0	0	0	498	
1	0	0	0	0	535	
2	0	0	0	0	481	
3	0	0	0	0	526	
4	0	0	0	0	499	
5	0	0	0	0	506	
6	0	0	0	0	524	
7	0	0	0	0	478	
8	0	0	0	0	523	
9	0	0	0	0	490	
10	0	0	0	0	504	
11	0	0	0	0	539	
12	0	0	0	0	476	
13	0	0	0	0	525	
14	0	0	0	0	503	
15	0	0	0	0	490	
0	0	0	0	0	517	
1	0	0	0	0	482	
2	0	0	0	0	554	
3	0	0	0	0	511	
4	0	0	0	0	496	
5	0	0	0	0	526	
6	0	0	0	0	473	
7	0	0	0	0	522	
8	0	0	0	0	506	
9	0	0	0	0	497	
10	0	0	0	0	506	
11	0	0	0	0	476	
12	0	0	0	0	531	
13	0	0	0	0	503	
14	0	0	0	0	497	
15	0	0	0	0	510	
0	0	0	0	0	475	
1	0	0	0	0	537	
2	0	0	0	0	496	
3	0	0	0	0	502	
4	0	0	0	0	518	
5	0	0	0	0	479	
6	0	0	0	0	530	
7	0	0	0	0	507	
8	0	0	0	0	502	
9	0	0	0	0	504	
10	0	0	0	0	475	
11	0	0	0	0	540	
12	0	0	0	0	507	
13	0	0	0	0	492	
14	0	0	0	0	512	
15	0	0	0	0	477	
0	0	0	0	0	514	
1	0	0	0	0	505	
2	0	0	0	0	492	
3	0	0	0	0	527	
4	0	0	0	0	473	
5	0	0	0	0	520	
6	0	0	0	0	510	
7	0	0	0	0	499	
8	0	0	0	0	517	
9	0	0	0	0	479	
10	0	0	0	0	530	
11	0	0	0	0	495	
12	0	0	0	0	503	
13	0	0	0	0	510	
14	0	0	0	0	483	
15	0	0	0	0	532	
0	0	0	0	0	502	
1	0	0	0	0	500	
2	0	0	0	0	519	
3	0	0	0	0	479	
4	0	0	0	0	533	
5	0	0	0	0	500	
6	0	0	0	0	498	
7	0	0	0	0	513	
8	0	0	0	0	497	
9	0	0	0	0	509	
10	0	0	0	0	513	
11	0	0	0	0	502	
12	0	0	0	0	514	
13	0	0	0	0	482	
14	0	0	0	0	536	
15	0	0	0	0	502	
0	0	0	0	0	494	
1	0	0	0	0	508	
2	0	0	0	0	479	
3	0	0	0	0	530	
4	0	0	0	0	497	
5	0	0	0	0	490	
6	0	0	0	0	536	
7	0	0	0	0	489	
8	0	0	0	0	535	
9	0	0	0	0	513	
10	0	0	0	0	496	
11	0	0	0	0	514	
12	0	0	0	0	481	
13	0	0	0	0	533	
14	0	0	0	0	497	
15	0	0	0	0	499	
0	0	0	0	0	515	
1	0	0	0	0	478	
2	0	0	0	0	523	
3	0	0	0	0	499	
4	0	0	0	0	503	
5	0	0	0	0	521	
6	0	0	0	0	481	
7	0	0	0	0	534	
8	0	0	0	0	510	
9	0	0	0	0	488	
10	0	0	0	0	516	
11	0	0	0	0	472	
12	0	0	0	0	528	
13	0	0	0	0	504	
14	0	0	0	0	507	
15	0	0	0	0	518	
0	0	0	0	0	474	
1	0	0	0	0	539	
2	0	0	0	0	520	
3	0	0	0	0	495	
4	0	0	0	0	523	
5	0	0	0	0	487	
6	0	0	0	0	516	
7	0	0	0	0	503	
8	0	0	0	0	504	
9	0	0	0	0	518	
10	0	0	0	0	475	
11	0	0	0	0	528	
12	0	0	0	0	504	
13	0	0	0	0	488	
14	0	0	0	0	515	
15	0	0	0	0	474	
0	0	0	0	0	539	
1	0	0	0	0	509	
2	0	0	0	0	489	
3	0	0	0	0	528	
4	0	0	0	0	485	
5	0	0	0	0	522	
6	0	0	0	0	512	
7	0	0	0	0	489	
8	0	0	0	0	520	
9	0	0	0	0	476	
10	0	0	0	0	513	
11	0	0	0	0	510	
12	0	0	0	0	505	
13	0	0	0	0	518	
14	0	0	0	0	479	
15	0	0	0	0	518	
0	0	0	0	0	513	
1	0	0	0	0	496	
2	0	0	0	0	514	
3	0	0	0	0	480	
4	0	0	0	0	536	
5	0	0	0	0	501	
6	0	0	0	0	509	
7	0	0	0	0	515	
8	0	0	0	0	476	
9	0	0	0	0	519	
10	0	0	0	0	499	
11	0	0	0	0	495	
12	0	0	0	0	525	
13	0	0	0	0	483	
14	0	0	0	0	528	
15	0	0	0	0	511	
0	0	0	0	0	511	
1	0	0	0	0	519	
2	0	0	0	0	477	
3	0	0	0	0	529	
4	0	0	0	0	504	
5	0	0	0	0	508	
6	0	0	0	0	509	
7	0	0	0	0	479	
8	0	0	0	0	541	
9	0	0	0	0	511	
10	0	0	0	0	502	
11	0	0	0	0	513	
12	0	0	0	0	486	
13	0	0	0	0	535	
14	0	0	0	0	510	
15	0	0	0	0	486	
0	0	0	0	0	504	
1	0	0	0	0	481	
2	0	0	0	0	531	
3	0	0	0	0	487	
4	0	0	0	0	489	
5	0	0	0	0	510	
6	0	0	0	0	481	
7	0	0	0	0	524	
8	0	0	0	0	505	
9	0	0	0	0	496	
10	0	0	0	0	519	
11	0	0	0	0	472	
12	0	0	0	0	524	
13	0	0	0	0	505	
14	0	0	0	0	487	
15	0	0	0	0	517	
0	0	0	0	0	481	
1	0	0	0	0	513	
2	0	0	0	0	499	
3	0	0	0	0	492	
4	0	0	0	0	519	
5	0	0	0	0	481	
6	0	0	0	0	518	
7	0	0	0	0	521	
8	0	0	0	0	496	
9	0	0	0	0	524	
10	0	0	0	0	476	
11	0	0	0	0	533	
12	0	0	0	0	500	
13	0	0	0	0	496	
14	0	0	0	0	517	
15	0	0	0	0	475	
0	0	0	0	0	539	
1	0	0	0	0	503	
2	0	0	0	0	493	
3	0	0	0	0	521	
4	0	0	0	0	471	
5	0	0	0	0	540	
6	0	0	0	0	509	
7	0	0	0	0	499	
8	0	0	0	0	519	
9	0	0	0	0	472	
10	0	0	0	0	519	
11	0	0	0	0	517	
12	0	0	0	0	497	
13	0	0	0	0	515	
14	0	0	0	0	488	
15	0	0	0	0	530	
0	0	0	0	0	501	
1	0	0	0	0	514	
2	0	0	0	0	515	
3	0	0	0	0	471	
4	0	0	0	0	527	
5	0	0	0	0	512	
6	0	0	0	0	498	
7	0	0	0	0	527	
8	0	0	0	0	476	
9	0	0	0	0	528	
10	0	0	0	0	503	
11	0	0	0	0	525	
12	0	0	0	0	521	
13	0	0	0	0	473	
14	0	0	0	0	528	
15	0	0	0	0	514	
0	0	0	0	0	504	
1	0	0	0	0	513	
2	0	0	0	0	471	
3	0	0	0	0	513	
4	0	0	0	0	498	
5	0	0	0	0	491	
6	0	0	0	0	507	
7	0	0	0	0	479	
8	0	0	0	0	534	
9	0	0	0	0	503	
10	0	0	0	0	500	
11	0	0	0	0	521	
12	0	0	0	0	484	
13	0	0	0	0	534	
14	0	0	0	0	500	
15	0	0	0	0	497	
0	0	0	0	0	510	
1	0	0	0	0	481	
2	0	0	0	0	534	
3	0	0	0	0	504	
4	0	0	0	0	492	
5	0	0	0	0	515	
6	0	0	0	0	480	
7	0	0	0	0	529	
8	0	0	0	0	503	
9	0	0	0	0	505	
10	0	0	0	0	512	
11	0	0	0	0	461	
12	0	0	0	0	529	
13	0	0	0	0	516	
14	0	0	0	0	504	
15	0	0	0	0	493	
0	0	0	0	0	475	
1	0	0	0	0	531	
2	0	0	0	0	506	
3	0	0	0	0	493	
4	0	0	0	0	511	
5	0	0	0	0	466	
6	0	0	0	0	524	
7	0	0	0	0	496	
8	0	0	0	0	498	
9	0	0	0	0	513	
10	0	0	0	0	468	
11	0	0	0	0	528	
12	0	0	0	0	505	
13	0	0	0	0	507	
14	0	0	0	0	523	
15	0	0	0	0	486	
0	0	0	0	0	527	
1	0	0	0	0	500	
2	0	0	0	0	493	
3	0	0	0	0	512	
4	0	0	0	0	487	
5	0	0	0	0	531	
6	0	0	0	0	499	
7	0	0	0	0	496	
8	0	0	0	0	525	
9	0	0	0	0	476	
10	0	0	0	0	523	
11	0	0	0	0	504	
12	0	0	0	0	498	
13	0	0	0	0	518	
14	0	0	0	0	487	
15	0	0	0	0	521	
0	0	0	0	0	495	
1	0	0	0	0	503	
2	0	0	0	0	525	
3	0	0	0	0	447	
4	0	0	0	0	579	
5	0	0	0	0	495	
6	0	0	0	0	478	
7	0	0	0	0	574	
8	0	0	0	0	479	
9	0	0	0	0	470	
10	0	0	0	0	554	
11	0	0	0	0	498	
12	0	0	0	0	441	
13	0	0	0	0	653	
14	0	0	0	0	435	
15	0	0	0	0	492	
0	0	0	0	0	566	
1	0	0	0	0	369	
2	0	0	0	0	617	
3	0	0	0	0	472	
4	0	0	0	0	317	
5	0	0	0	0	699	
6	0	0	0	0	266	
7	0	0	0	0	548	
8	0	0	0	0	531	
9	0	0	0	0	373	
10	0	0	0	0	715	
11	0	0	0	0	331	
12	0	0	0	0	737	
13	0	0	0	0	432	
14	0	0	0	0	0	
15	0	0	0	0	995	
0	0	0	0	0	103	
1	0	0	0	0	1022	
2	0	0	0	0	392	
3	0	0	0	0	387	
4	0	0	0	0	657	
5	0	0	0	0	176	
6	0	0	0	0	871	
7	0	0	0	0	190	
8	0	0	0	0	806	
9	0	0	0	0	438	
10	0	0	0	0	452	
11	0	0	0	0	611	
12	0	0	0	0	94	
13	0	0	0	0	988	
14	0	0	0	0	267	
15	0	0	0	0	731	
0	0	0	0	0	478	
1	0	0	0	0	463	
2	0	0	0	0	960	
3	0	0	0	0	159	
4	0	0	0	0	686	
5	0	0	0	0	535	
6	0	0	0	0	155	
7	0	0	0	0	868	
8	0	0	0	0	0	
9	0	0	0	0	1022	
10	0	0	0	0	65	
11	0	0	0	0	571	
12	0	0	0	0	560	
13	0	0	0	0	172	
14	0	0	0	0	773	
15	0	0	0	0	436	
0	0	0	0	0	807	
1	0	0	0	0	273	
2	0	0	0	0	284	
3	0	0	0	0	686	
4	0	0	0	0	198	
5	0	0	0	0	822	
6	0	0	0	0	188	
7	0	0	0	0	838	
8	0	0	0	0	395	
9	0	0	0	0	290	
10	0	0	0	0	698	
11	0	0	0	0	168	
12	0	0	0	0	1014	
13	0	0	0	0	201	
14	0	0	0	0	288	
15	0	0	0	0	688	
0	0	0	0	0	305	
1	0	0	0	0	417	
2	0	0	0	0	717	
3	0	0	0	0	403	
4	0	0	0	0	259	
5	0	0	0	0	909	
6	0	0	0	0	172	
7	0	0	0	0	934	
8	0	0	0	0	321	
9	0	0	0	0	420	
10	0	0	0	0	503	
11	0	0	0	0	0	
12	0	0	0	0	1022	
13	0	0	0	0	281	
14	0	0	0	0	900	
15	0	0	0	0	480	
0	0	0	0	0	316	
1	0	0	0	0	506	
2	0	0	0	0	71	
3	0	0	0	0	887	
4	0	0	0	0	8	
5	0	0	0	0	854	
6	0	0	0	0	552	
7	0	0	0	0	0	
8	0	0	0	0	967	
9	0	0	0	0	313	
10	0	0	0	0	1022	
11	0	0	0	0	126	
12	0	0	0	0	138	
13	0	0	0	0	655	
14	0	0	0	0	60	
15	0	0	0	0	866	
0	0	0	0	0	137	
1	0	0	0	0	1022	
2	0	0	0	0	149	
3	0	0	0	0	92	
4	0	0	0	0	837	
5	0	0	0	0	0	
6	0	0	0	0	856	
7	0	0	0	0	0	
8	0	0	0	0	1022	
9	0	0	0	0	211	
10	0	0	0	0	185	
11	0	0	0	0	623	
12	0	0	0	0	71	
13	0	0	0	0	1002	
14	0	0	0	0	228	
15	0	0	0	0	1022	
0	0	0	0	0	184	
1	0	0	0	0	241	
2	0	0	0	0	781	
3	0	0	0	0	430	
4	0	0	0	0	517	
5	0	0	0	0	413	
6	0	0	0	0	36	
7	0	0	0	0	1022	
8	0	0	0	0	111	
9	0	0	0	0	623	
10	0	0	0	0	462	
11	0	0	0	0	0	
12	0	0	0	0	1022	
13	0	0	0	0	205	
14	0	0	0	0	802	
15	0	0	0	0	0	
0	0	0	0	0	729	
1	0	0	0	0	606	
2	0	0	0	0	315	
3	0	0	0	0	744	
4	0	0	0	0	305	
5	0	0	0	0	769	
6	0	0	0	0	377	
7	0	0	0	0	391	
8	0	0	0	0	593	
9	0	0	0	0	530	
10	0	0	0	0	705	
11	0	0	0	0	448	
12	0	0	0	0	255	
13	0	0	0	0	1022	
14	0	0	0	0	429	
15	0	0	0	0	489	
0	0	0	0	0	582	
1	0	0	0	0	382	
2	0	0	0	0	1018	
3	0	0	0	0	152	
4	0	0	0	0	694	
5	0	0	0	0	497	
6	0	0	0	0	482	
7	0	0	0	0	432	
8	0	0	0	0	683	
9	0	0	0	0	36	
10	0	0	0	0	951	
11	0	0	0	0	214	
12	0	0	0	0	525	
13	0	0	0	0	668	
14	0	0	0	0	367	
15	0	0	0	0	573	
0	0	0	0	0	313	
1	0	0	0	0	492	
2	0	0	0	0	335	
3	0	0	0	0	923	
4	0	0	0	0	392	
5	0	0	0	0	395	
6	0	0	0	0	380	
7	0	0	0	0	394	
8	0	0	0	0	462	
9	0	0	0	0	499	
10	0	0	0	0	411	
11	0	0	0	0	664	
12	0	0	0	0	290	
13	0	0	0	0	848	
14	0	0	0	0	455	
15	0	0	0	0	433	
0	0	0	0	0	463	
1	0	0	0	0	396	
2	0	0	0	0	885	
3	0	0	0	0	524	
4	0	0	0	0	527	
5	0	0	0	0	787	
6	0	0	0	0	386	
7	0	0	0	0	371	
8	0	0	0	0	504	
9	0	0	0	0	453	
10	0	0	0	0	535	
11	0	0	0	0	410	
12	0	0	0	0	445	
13	0	0	0	0	605	
14	0	0	0	0	449	
15	0	0	0	0	459	
0	0	0	0	0	645	
1	0	0	0	0	486	
2	0	0	0	0	604	
3	0	0	0	0	497	
4	0	0	0	0	508	
5	0	0	0	0	475	
6	0	0	0	0	359	
7	0	0	0	0	620	
8	0	0	0	0	435	
9	0	0	0	0	539	
10	0	0	0	0	556	
11	0	0	0	0	524	
12	0	0	0	0	499	
13	0	0	0	0	426	
14	0	0	0	0	655	
15	0	0	0	0	447	
0	0	0	0	0	576	
1	0	0	0	0	516	
2	0	0	0	0	463	
3	0	0	0	0	518	
4	0	0	0	0	449	
5	0	0	0	0	500	
6	0	0	0	0	508	
7	0	0	0	0	546	
8	0	0	0	0	467	
9	0	0	0	0	493	
10	0	0	0	0	579	
11	0	0	0	0	502	
12	0	0	0	0	451	
13	0	0	0	0	530	
14	0	0	0	0	402	
15	0	0	0	0	682	
0	0	0	0	0	450	
1	0	0	0	0	483	
2	0	0	0	0	494	
3	0	0	0	0	455	
4	0	0	0	0	489	
5	0	0	0	0	491	
6	0	0	0	0	557	
7	0	0	0	0	435	
8	0	0	0	0	488	
9	0	0	0	0	455	
10	0	0	0	0	583	
11	0	0	0	0	477	
12	0	0	0	0	543	
13	0	0	0	0	477	
14	0	0	0	0	502	
15	0	0	0	0	513	
0	0	0	0	0	503	
1	0	0	0	0	542	
2	0	0	0	0	470	
3	0	0	0	0	510	
4	0	0	0	0	492	
5	0	0	0	0	500	
6	0	0	0	0	530	
7	0	0	0	0	465	
8	0	0	0	0	535	
9	0	0	0	0	501	
10	0	0	0	0	509	
11	0	0	0	0	544	
12	0	0	0	0	503	
13	0	0	0	0	485	
14	0	0	0	0	515	
15	0	0	0	0	567	
0	0	0	0	0	457	
1	0	0	0	0	460	
2	0	0	0	0	544	
3	0	0	0	0	491	
4	0	0	0	0	500	
5	0	0	0	0	476	
6	0	0	0	0	528	
7	0	0	0	0	494	
8	0	0	0	0	510	
9	0	0	0	0	491	
10	0	0	0	0	563	
11	0	0	0	0	482	
12	0	0	0	0	477	
13	0	0	0	0	496	
14	0	0	0	0	487	
15	0	0	0	0	482	
0	0	0	0	0	511	
1	0	0	0	0	454	
2	0	0	0	0	556	
3	0	0	0	0	519	
4	0	0	0	0	510	
5	0	0	0	0	499	
6	0	0	0	0	546	
7	0	0	0	0	492	
8	0	0	0	0	456	
9	0	0	0	0	558	
10	0	0	0	0	497	
11	0	0	0	0	477	
12	0	0	0	0	490	
13	0	0	0	0	552	
14	0	0	0	0	500	
15	0	0	0	0	486	
0	0	0	0	0	489	
1	0	0	0	0	509	
2	0	0	0	0	515	
3	0	0	0	0	515	
4	0	0	0	0	478	
5	0	0	0	0	473	
6	0	0	0	0	548	
7	0	0	0	0	473	
8	0	0	0	0	507	
9	0	0	0	0	511	
10	0	0	0	0	528	
11	0	0	0	0	497	
12	0	0	0	0	482	
13	0	0	0	0	505	
14	0	0	0	0	486	
15	0	0	0	0	536	
0	0	0	0	0	465	
1	0	0	0	0	482	
2	0	0	0	0	505	
3	0	0	0	0	484	
4	0	0	0	0	508	
5	0	0	0	0	528	
6	0	0	0	0	492	
7	0	0	0	0	546	
8	0	0	0	0	472	
9	0	0	0	0	490	
10	0	0	0	0	502	
11	0	0	0	0	487	
12	0	0	0	0	530	
13	0	0	0	0	477	
14	0	0	0	0	492	
15	0	0	0	0	486	
0	0	0	0	0	536	
1	0	0	0	0	519	
2	0	0	0	0	483	
3	0	0	0	0	481	
4	0	0	0	0	500	
5	0	0	0	0	456	
6	0	0	0	0	559	
7	0	0	0	0	489	
8	0	0	0	0	476	
9	0	0	0	0	558	
10	0	0	0	0	492	
11	0	0	0	0	482	
12	0	0	0	0	518	
13	0	0	0	0	463	
14	0	0	0	0	563	
15	0	0	0	0	474	
0	0	0	0	0	508	
1	0	0	0	0	508	
2	0	0	0	0	491	
3	0	0	0	0	526	
4	0	0	0	0	508	
5	0	0	0	0	538	
6	0	0	0	0	528	
7	0	0	0	0	475	
8	0	0	0	0	495	
9	0	0	0	0	490	
10	0	0	0	0	551	
11	0	0	0	0	486	
12	0	0	0	0	509	
13	0	0	0	0	484	
14	0	0	0	0	523	
15	0	0	0	0	513	
0	0	0	0	0	499	
1	0	0	0	0	474	
2	0	0	0	0	518	
3	0	0	0	0	486	
4	0	0	0	0	531	
5	0	0	0	0	475	
6	0	0	0	0	496	
7	0	0	0	0	506	
8	0	0	0	0	513	
9	0	0	0	0	483	
10	0	0	0	0	502	
11	0	0	0	0	513	
12	0	0	0	0	489	
13	0	0	0	0	518	
14	0	0	0	0	489	
15	0	0	0	0	515	
0	0	0	0	0	497	
1	0	0	0	0	497	
2	0	0	0	0	502	
3	0	0	0	0	504	
4	0	0	0	0	503	
5	0	0	0	0	504	
6	0	0	0	0	471	
7	0	0	0	0	533	
8	0	0	0	0	497	
9	0	0	0	0	486	
10	0	0	0	0	496	
11	0	0	0	0	482	
12	0	0	0	0	521	
13	0	0	0	0	531	
14	0	0	0	0	476	
15	0	0	0	0	501	
0	0	0	0	0	512	
1	0	0	0	0	483	
2	0	0	0	0	503	
3	0	0	0	0	538	
4	0	0	0	0	463	
5	0	0	0	0	504	
6	0	0	0	0	470	
7	0	0	0	0	580	
8	0	0	0	0	469	
9	0	0	0	0	497	
10	0	0	0	0	452	
11	0	0	0	0	530	
12	0	0	0	0	494	
13	0	0	0	0	470	
14	0	0	0	0	551	
15	0	0	0	0	506	
0	0	0	0	0	467	
1	0	0	0	0	516	
2	0	0	0	0	522	
3	0	0	0	0	434	
4	0	0	0	0	655	
5	0	0	0	0	429	
6	0	0	0	0	457	
7	0	0	0	0	565	
8	0	0	0	0	498	
9	0	0	0	0	357	
10	0	0	0	0	655	
11	0	0	0	0	352	
12	0	0	0	0	700	
13	0	0	0	0	430	
14	0	0	0	0	433	
15	0	0	0	0	623	
0	0	0	0	0	360	
1	0	0	0	0	618	
2	0	0	0	0	456	
3	0	0	0	0	376	
4	0	0	0	0	767	
5	0	0	0	0	338	
6	0	0	0	0	560	
7	0	0	0	0	534	
8	0	0	0	0	503	
9	0	0	0	0	328	
10	0	0	0	0	777	
11	0	0	0	0	400	
12	0	0	0	0	556	
13	0	0	0	0	497	
14	0	0	0	0	177	
15	0	0	0	0	770	
0	0	0	0	0	439	
1	0	0	0	0	679	
2	0	0	0	0	463	
3	0	0	0	0	187	
4	0	0	0	0	965	
5	0	0	0	0	331	
6	0	0	0	0	849	
7	0	0	0	0	401	
8	0	0	0	0	168	
9	0	0	0	0	1022	
10	0	0	0	0	171	
11	0	0	0	0	977	
12	0	0	0	0	373	
13	0	0	0	0	162	
14	0	0	0	0	777	
15	0	0	0	0	217	
0	0	0	0	0	1022	
1	0	0	0	0	274	
2	0	0	0	0	685	
3	0	0	0	0	517	
4	0	0	0	0	195	
5	0	0	0	0	855	
6	0	0	0	0	368	
7	0	0	0	0	788	
8	0	0	0	0	360	
9	0	0	0	0	249	
10	0	0	0	0	1022	
11	0	0	0	0	139	
12	0	0	0	0	1022	
13	0	0	0	0	300	
14	0	0	0	0	0	
15	0	0	0	0	788	
0	0	0	0	0	130	
1	0	0	0	0	1022	
2	0	0	0	0	262	
3	0	0	0	0	136	
4	0	0	0	0	805	
5	0	0	0	0	0	
6	0	0	0	0	1022	
7	0	0	0	0	289	
8	0	0	0	0	609	
9	0	0	0	0	435	
10	0	0	0	0	114	
11	0	0	0	0	968	
12	0	0	0	0	198	
13	0	0	0	0	833	
14	0	0	0	0	467	
15	0	0	0	0	0	
0	0	0	0	0	1022	
1	0	0	0	0	190	
2	0	0	0	0	760	
3	0	0	0	0	419	
4	0	0	0	0	560	
5	0	0	0	0	491	
6	0	0	0	0	0	
7	0	0	0	0	1022	
8	0	0	0	0	146	
9	0	0	0	0	786	
10	0	0	0	0	509	
11	0	0	0	0	0	
12	0	0	0	0	1022	
13	0	0	0	0	90	
14	0	0	0	0	925	
15	0	0	0	0	280	
0	0	0	0	0	0	
1	0	0	0	0	973	
2	0	0	0	0	219	
3	0	0	0	0	794	
4	0	0	0	0	459	
5	0	0	0	0	292	
6	0	0	0	0	807	
7	0	0	0	0	473	
8	0	0	0	0	346	
9	0	0	0	0	484	
10	0	0	0	0	153	
11	0	0	0	0	1022	
12	0	0	0	0	134	
13	0	0	0	0	792	
14	0	0	0	0	632	
15	0	0	0	0	0	
0	0	0	0	0	1022	
1	0	0	0	0	0	
2	0	0	0	0	335	
3	0	0	0	0	692	
4	0	0	0	0	0	
5	0	0	0	0	1022	
6	0	0	0	0	152	
7	0	0	0	0	1022	
8	0	0	0	0	177	
9	0	0	0	0	329	
10	0	0	0	0	669	
11	0	0	0	0	104	
12	0	0	0	0	818	
13	0	0	0	0	263	
14	0	0	0	0	922	
15	0	0	0	0	279	
0	0	0	0	0	0	
1	0	0	0	0	1022	
2	0	0	0	0	0	
3	0	0	0	0	1022	
4	0	0	0	0	609	
5	0	0	0	0	139	
6	0	0	0	0	772	
7	0	0	0	0	673	
8	0	0	0	0	0	
9	0	0	0	0	1022	
10	0	0	0	0	204	
11	0	0	0	0	516	
12	0	0	0	0	391	
13	0	0	0	0	911	
14	0	0	0	0	471	
15	0	0	0	0	220	
0	0	0	0	0	631	
1	0	0	0	0	321	
2	0	0	0	0	401	
3	0	0	0	0	690	
4	0	0	0	0	374	
5	0	0	0	0	453	
6	0	0	0	0	825	
7	0	0	0	0	141	
8	0	0	0	0	529	
9	0	0	0	0	274	
10	0	0	0	0	600	
11	0	0	0	0	365	
12	0	0	0	0	726	
13	0	0	0	0	424	
14	0	0	0	0	355	
15	0	0	0	0	683	
0	0	0	0	0	551	
1	0	0	0	0	241	
2	0	0	0	0	740	
3	0	0	0	0	460	
4	0	0	0	0	523	
5	0	0	0	0	544	
6	0	0	0	0	474	
7	0	0	0	0	334	
8	0	0	0	0	494	
9	0	0	0	0	540	
10	0	0	0	0	431	
11	0	0	0	0	604	
12	0	0	0	0	434	
13	0	0	0	0	306	
14	0	0	0	0	759	
15	0	0	0	0	423	
0	0	0	0	0	364	
1	0	0	0	0	625	
2	0	0	0	0	542	
3	0	0	0	0	640	
4	0	0	0	0	670	
5	0	0	0	0	396	
6	0	0	0	0	439	
7	0	0	0	0	590	
8	0	0	0	0	504	
9	0	0	0	0	564	
10	0	0	0	0	374	
11	0	0	0	0	625	
12	0	0	0	0	462	
13	0	0	0	0	407	
14	0	0	0	0	608	
15	0	0	0	0	619	
0	0	0	0	0	320	
1	0	0	0	0	643	
2	0	0	0	0	402	
3	0	0	0	0	469	
4	0	0	0	0	527	
5	0	0	0	0	504	
6	0	0	0	0	452	
7	0	0	0	0	529	
8	0	0	0	0	521	
9	0	0	0	0	476	
10	0	0	0	0	553	
11	0	0	0	0	475	
12	0	0	0	0	495	
13	0	0	0	0	500	
14	0	0	0	0	478	
15	0	0	0	0	541	
0	0	0	0	0	451	
1	0	0	0	0	484	
2	0	0	0	0	552	
3	0	0	0	0	491	
4	0	0	0	0	495	
5	0	0	0	0	538	
6	0	0	0	0	466	
7	0	0	0	0	442	
8	0	0	0	0	694	
9	0	0	0	0	416	
10	0	0	0	0	488	
11	0	0	0	0	478	
12	0	0	0	0	572	
13	0	0	0	0	489	
14	0	0	0	0	429	
15	0	0	0	0	566	
0	0	0	0	0	413	
1	0	0	0	0	510	
2	0	0	0	0	552	
3	0	0	0	0	501	
4	0	0	0	0	495	
5	0	0	0	0	478	
6	0	0	0	0	532	
7	0	0	0	0	481	
8	0	0	0	0	524	
9	0	0	0	0	499	
10	0	0	0	0	467	
11	0	0	0	0	556	
12	0	0	0	0	580	
13	0	0	0	0	423	
14	0	0	0	0	502	
15	0	0	0	0	486	
0	0	0	0	0	529	
1	0	0	0	0	498	
2	0	0	0	0	489	
3	0	0	0	0	518	
4	0	0	0	0	453	
5	0	0	0	0	511	
6	0	0	0	0	611	
7	0	0	0	0	478	
8	0	0	0	0	488	
9	0	0	0	0	489	
10	0	0	0	0	578	
11	0	0	0	0	486	
12	0	0	0	0	510	
13	0	0	0	0	498	
14	0	0	0	0	466	
15	0	0	0	0	502	
0	0	0	0	0	574	
1	0	0	0	0	484	
2	0	0	0	0	529	
3	0	0	0	0	455	
4	0	0	0	0	545	
5	0	0	0	0	480	
6	0	0	0	0	496	
7	0	0	0	0	525	
8	0	0	0	0	481	
9	0	0	0	0	507	
10	0	0	0	0	548	
11	0	0	0	0	470	
12	0	0	0	0	534	
13	0	0	0	0	440	
14	0	0	0	0	559	
15	0	0	0	0	518	
0	0	0	0	0	403	
1	0	0	0	0	668	
2	0	0	0	0	426	
3	0	0	0	0	530	
4	0	0	0	0	537	
5	0	0	0	0	484	
6	0	0	0	0	499	
7	0	0	0	0	505	
8	0	0	0	0	489	
9	0	0	0	0	547	
10	0	0	0	0	422	
11	0	0	0	0	559	
12	0	0	0	0	428	
13	0	0	0	0	548	
14	0	0	0	0	494	
15	0	0	0	0	497	
0	0	0	0	0	533	
1	0	0	0	0	467	
2	0	0	0	0	524	
3	0	0	0	0	472	
4	0	0	0	0	512	
5	0	0	0	0	550	
6	0	0	0	0	415	
7	0	0	0	0	616	
8	0	0	0	0	478	
9	0	0	0	0	473	
10	0	0	0	0	527	
11	0	0	0	0	474	
12	0	0	0	0	551	
13	0	0	0	0	491	
14	0	0	0	0	479	
15	0	0	0	0	551	
0	0	0	0	0	432	
1	0	0	0	0	601	
2	0	0	0	0	443	
3	0	0	0	0	564	
4	0	0	0	0	474	
5	0	0	0	0	518	
6	0	0	0	0	504	
7	0	0	0	0	499	
8	0	0	0	0	523	
9	0	0	0	0	465	
10	0	0	0	0	576	
11	0	0	0	0	493	
12	0	0	0	0	575	
13	0	0	0	0	504	
14	0	0	0	0	496	
15	0	0	0	0	473	
0	0	0	0	0	545	
1	0	0	0	0	476	
2	0	0	0	0	493	
3	0	0	0	0	514	
4	0	0	0	0	456	
5	0	0	0	0	571	
6	0	0	0	0	458	
7	0	0	0	0	538	
8	0	0	0	0	529	
9	0	0	0	0	460	
10	0	0	0	0	541	
11	0	0	0	0	502	
12	0	0	0	0	499	
13	0	0	0	0	516	
14	0	0	0	0	487	
15	0	0	0	0	535	
0	0	0	0	0	474	
1	0	0	0	0	577	
2	0	0	0	0	490	
3	0	0	0	0	435	
4	0	0	0	0	534	
5	0	0	0	0	527	
6	0	0	0	0	505	
7	0	0	0	0	493	
8	0	0	0	0	526	
9	0	0	0	0	520	
10	0	0	0	0	552	
11	0	0	0	0	494	
12	0	0	0	0	498	
13	0	0	0	0	521	
14	0	0	0	0	494	
15	0	0	0	0	515	
0	0	0	0	0	517	
1	0	0	0	0	487	
2	0	0	0	0	533	
3	0	0	0	0	461	
4	0	0	0	0	598	
5	0	0	0	0	453	
6	0	0	0	0	501	
7	0	0	0	0	473	
8	0	0	0	0	541	
9	0	0	0	0	513	
10	0	0	0	0	449	
11	0	0	0	0	551	
12	0	0	0	0	418	
13	0	0	0	0	588	
14	0	0	0	0	466	
15	0	0	0	0	504	
0	0	0	0	0	558	
1	0	0	0	0	448	
2	0	0	0	0	544	
3	0	0	0	0	497	
4	0	0	0	0	500	
5	0	0	0	0	524	
6	0	0	0	0	511	
7	0	0	0	0	487	
8	0	0	0	0	497	
9	0	0	0	0	507	
10	0	0	0	0	501	
11	0	0	0	0	509	
12	0	0	0	0	527	
13	0	0	0	0	487	
14	0	0	0	0	508	
15	0	0	0	0	500	
0	0	0	0	0	495	
1	0	0	0	0	495	
2	0	0	0	0	504	
3	0	0	0	0	527	
4	0	0	0	0	472	
5	0	0	0	0	494	
6	0	0	0	0	556	
7	0	0	0	0	489	
8	0	0	0	0	473	
9	0	0	0	0	584	
10	0	0	0	0	478	
11	0	0	0	0	418	
12	0	0	0	0	636	
13	0	0	0	0	422	
14	0	0	0	0	573	
15	0	0	0	0	532	
0	0	0	0	0	439	
1	0	0	0	0	379	
2	0	0	0	0	631	
3	0	0	0	0	488	
4	0	0	0	0	432	
5	0	0	0	0	723	
6	0	0	0	0	318	
7	0	0	0	0	772	
8	0	0	0	0	482	
9	0	0	0	0	209	
10	0	0	0	0	875	
11	0	0	0	0	424	
12	0	0	0	0	609	
13	0	0	0	0	572	
14	0	0	0	0	291	
15	0	0	0	0	768	
0	0	0	0	0	351	
1	0	0	0	0	604	
2	0	0	0	0	483	
3	0	0	0	0	231	
4	0	0	0	0	851	
5	0	0	0	0	318	
6	0	0	0	0	547	
7	0	0	0	0	400	
8	0	0	0	0	0	
9	0	0	0	0	1022	
10	0	0	0	0	253	
11	0	0	0	0	445	
12	0	0	0	0	721	
13	0	0	0	0	246	
14	0	0	0	0	726	
15	0	0	0	0	202	
0	0	0	0	0	699	
1	0	0	0	0	314	
2	0	0	0	0	597	
3	0	0	0	0	0	
4	0	0	0	0	1022	
5	0	0	0	0	0	
6	0	0	0	0	986	
7	0	0	0	0	260	
8	0	0	0	0	0	
9	0	0	0	0	1022	
10	0	0	0	0	46	
11	0	0	0	0	1022	
12	0	0	0	0	204	
13	0	0	0	0	809	
14	0	0	0	0	279	
15	0	0	0	0	0	
0	0	0	0	0	1022	
1	0	0	0	0	103	
2	0	0	0	0	801	
3	0	0	0	0	391	
4	0	0	0	0	362	
5	0	0	0	0	530	
6	0	0	0	0	0	
7	0	0	0	0	1022	
8	0	0	0	0	232	
9	0	0	0	0	0	
10	0	0	0	0	1022	
11	0	0	0	0	0	
12	0	0	0	0	1022	
13	0	0	0	0	56	
14	0	0	0	0	386	
15	0	0	0	0	541	
0	0	0	0	0	76	
1	0	0	0	0	979	
2	0	0	0	0	293	
3	0	0	0	0	498	
4	0	0	0	0	630	
5	0	0	0	0	0	
6	0	0	0	0	1022	
7	0	0	0	0	136	
8	0	0	0	0	615	
9	0	0	0	0	431	
10	0	0	0	0	629	
11	0	0	0	0	478	
12	0	0	0	0	596	
13	0	0	0	0	673	
14	0	0	0	0	191	
15	0	0	0	0	468	
0	0	0	0	0	471	
1	0	0	0	0	177	
2	0	0	0	0	868	
3	0	0	0	0	196	
4	0	0	0	0	1022	
5	0	0	0	0	441	
6	0	0	0	0	38	
7	0	0	0	0	665	
8	0	0	0	0	287	
9	0	0	0	0	784	
10	0	0	0	0	509	
11	0	0	0	0	67	
12	0	0	0	0	490	
13	0	0	0	0	562	
14	0	0	0	0	455	
15	0	0	0	0	155	
0	0	0	0	0	1022	
1	0	0	0	0	0	
2	0	0	0	0	181	
3	0	0	0	0	1022	
4	0	0	0	0	67	
5	0	0	0	0	1022	
6	0	0	0	0	272	
7	0	0	0	0	1020	
8	0	0	0	0	331	
9	0	0	0	0	396	
10	0	0	0	0	937	
11	0	0	0	0	432	
12	0	0	0	0	761	
13	0	0	0	0	372	
14	0	0	0	0	312	
15	0	0	0	0	654	
0	0	0	0	0	58	
1	0	0	0	0	479	
2	0	0	0	0	417	
3	0	0	0	0	625	
4	0	0	0	0	711	
5	0	0	0	0	274	
6	0	0	0	0	405	
7	0	0	0	0	650	
8	0	0	0	0	79	
9	0	0	0	0	1022	
10	0	0	0	0	0	
11	0	0	0	0	549	
12	0	0	0	0	849	
13	0	0	0	0	66	
14	0	0	0	0	891	
15	0	0	0	0	286	
0	0	0	0	0	519	
1	0	0	0	0	409	
2	0	0	0	0	184	
3	0	0	0	0	808	
4	0	0	0	0	323	
5	0	0	0	0	218	
6	0	0	0	0	756	
7	0	0	0	0	297	
8	0	0	0	0	557	
9	0	0	0	0	452	
10	0	0	0	0	304	
11	0	0	0	0	902	
12	0	0	0	0	419	
13	0	0	0	0	432	
14	0	0	0	0	446	
15	0	0	0	0	741	
0	0	0	0	0	310	
1	0	0	0	0	499	
2	0	0	0	0	403	
3	0	0	0	0	587	
4	0	0	0	0	601	
5	0	0	0	0	644	
6	0	0	0	0	529	
7	0	0	0	0	634	
8	0	0	0	0	771	
9	0	0	0	0	288	
10	0	0	0	0	710	
11	0	0	0	0	471	
12	0	0	0	0	332	
13	0	0	0	0	768	
14	0	0	0	0	523	
15	0	0	0	0	662	
0	0	0	0	0	434	
1	0	0	0	0	339	
2	0	0	0	0	797	
3	0	0	0	0	443	
4	0	0	0	0	515	
5	0	0	0	0	371	
6	0	0	0	0	556	
7	0	0	0	0	593	
8	0	0	0	0	288	
9	0	0	0	0	582	
10	0	0	0	0	503	
11	0	0	0	0	501	
12	0	0	0	0	485	
13	0	0	0	0	425	
14	0	0	0	0	530	
15	0	0	0	0	652	
0	0	0	0	0	459	
1	0	0	0	0	737	
2	0	0	0	0	464	
3	0	0	0	0	611	
4	0	0	0	0	416	
5	0	0	0	0	400	
6	0	0	0	0	570	
7	0	0	0	0	454	
8	0	0	0	0	486	
9	0	0	0	0	503	
10	0	0	0	0	458	
11	0	0	0	0	488	
12	0	0	0	0	537	
13	0	0	0	0	615	
14	0	0	0	0	470	
15	0	0	0	0	529	
0	0	0	0	0	470	
1	0	0	0	0	488	
2	0	0	0	0	459	
3	0	0	0	0	672	
4	0	0	0	0	417	
5	0	0	0	0	454	
6	0	0	0	0	508	
7	0	0	0	0	581	
8	0	0	0	0	466	
9	0	0	0	0	491	
10	0	0	0	0	506	
11	0	0	0	0	478	
12	0	0	0	0	447	
13	0	0	0	0	518	
14	0	0	0	0	545	
15	0	0	0	0	392	
0	0	0	0	0	574	
1	0	0	0	0	461	
2	0	0	0	0	527	
3	0	0	0	0	542	
4	0	0	0	0	408	
5	0	0	0	0	565	
6	0	0	0	0	466	
7	0	0	0	0	499	
8	0	0	0	0	486	
9	0	0	0	0	484	
10	0	0	0	0	447	
11	0	0	0	0	497	
12	0	0	0	0	575	
13	0	0	0	0	432	
14	0	0	0	0	534	
15	0	0	0	0	519	
0	0	0	0	0	489	
1	0	0	0	0	507	
2	0	0	0	0	514	
3	0	0	0	0	489	
4	0	0	0	0	460	
5	0	0	0	0	576	
6	0	0	0	0	382	
7	0	0	0	0	530	
8	0	0	0	0	539	
9	0	0	0	0	457	
10	0	0	0	0	500	
11	0	0	0	0	504	
12	0	0	0	0	513	
13	0	0	0	0	484	
14	0	0	0	0	582	
15	0	0	0	0	491	
0	0	0	0	0	451	
1	0	0	0	0	545	
2	0	0	0	0	472	
3	0	0	0	0	478	
4	0	0	0	0	503	
5	0	0	0	0	533	
6	0	0	0	0	506	
7	0	0	0	0	548	
8	0	0	0	0	448	
9	0	0	0	0	525	
10	0	0	0	0	482	
11	0	0	0	0	575	
12	0	0	0	0	505	
13	0	0	0	0	516	
14	0	0	0	0	533	
15	0	0	0	0	434	
0	0	0	0	0	554	
1	0	0	0	0	458	
2	0	0	0	0	481	
3	0	0	0	0	507	
4	0	0	0	0	555	
5	0	0	0	0	496	
6	0	0	0	0	539	
7	0	0	0	0	511	
8	0	0	0	0	463	
9	0	0	0	0	578	
10	0	0	0	0	512	
11	0	0	0	0	492	
12	0	0	0	0	529	
13	0	0	0	0	458	
14	0	0	0	0	582	
15	0	0	0	0	499	
0	0	0	0	0	454	
1	0	0	0	0	517	
2	0	0	0	0	482	
3	0	0	0	0	519	
4	0	0	0	0	489	
5	0	0	0	0	470	
6	0	0	0	0	596	
7	0	0	0	0	462	
8	0	0	0	0	493	
9	0	0	0	0	511	
10	0	0	0	0	495	
11	0	0	0	0	489	
12	0	0	0	0	483	
13	0	0	0	0	515	
14	0	0	0	0	502	
15	0	0	0	0	473	
0	0	0	0	0	508	
1	0	0	0	0	489	
2	0	0	0	0	509	
3	0	0	0	0	531	
4	0	0	0	0	457	
5	0	0	0	0	556	
6	0	0	0	0	483	
7	0	0	0	0	528	
8	0	0	0	0	465	
9	0	0	0	0	514	
10	0	0	0	0	522	
11	0	0	0	0	498	
12	0	0	0	0	507	
13	0	0	0	0	507	
14	0	0	0	0	480	
15	0	0	0	0	503	
0	0	0	0	0	561	
1	0	0	0	0	461	
2	0	0	0	0	505	
3	0	0	0	0	492	
4	0	0	0	0	535	
5	0	0	0	0	480	
6	0	0	0	0	476	
7	0	0	0	0	564	
8	0	0	0	0	476	
9	0	0	0	0	545	
10	0	0	0	0	500	
11	0	0	0	0	505	
12	0	0	0	0	535	
13	0	0	0	0	445	
14	0	0	0	0	518	
15	0	0	0	0	492	
0	0	0	0	0	464	
1	0	0	0	0	581	
2	0	0	0	0	455	
3	0	0	0	0	499	
4	0	0	0	0	527	
5	0	0	0	0	487	
6	0	0	0	0	520	
7	0	0	0	0	508	
8	0	0	0	0	512	
9	0	0	0	0	493	
10	0	0	0	0	513	
11	0	0	0	0	509	
12	0	0	0	0	518	
13	0	0	0	0	514	
14	0	0	0	0	504	
15	0	0	0	0	499	
0	0	0	0	0	533	
1	0	0	0	0	492	
2	0	0	0	0	524	
3	0	0	0	0	553	
4	0	0	0	0	485	
5	0	0	0	0	514	
6	0	0	0	0	488	
7	0	0	0	0	518	
8	0	0	0	0	499	
9	0	0	0	0	511	
10	0	0	0	0	520	
11	0	0	0	0	523	
12	0	0	0	0	508	
13	0	0	0	0	486	
14	0	0	0	0	512	
15	0	0	0	0	505	
0	0	0	0	0	482	
1	0	0	0	0	523	
2	0	0	0	0	491	
3	0	0	0	0	529	
4	0	0	0	0	502	
5	0	0	0	0	521	
6	0	0	0	0	510	
7	0	0	0	0	468	
8	0	0	0	0	548	
9	0	0	0	0	507	
10	0	0	0	0	479	
11	0	0	0	0	519	
12	0	0	0	0	393	
13	0	0	0	0	624	
14	0	0	0	0	427	
15	0	0	0	0	427	
0	0	0	0	0	631	
1	0	0	0	0	278	
2	0	0	0	0	619	
3	0	0	0	0	510	
4	0	0	0	0	401	
5	0	0	0	0	614	
6	0	0	0	0	513	
7	0	0	0	0	281	
8	0	0	0	0	726	
9	0	0	0	0	322	
10	0	0	0	0	411	
11	0	0	0	0	772	
12	0	0	0	0	275	
13	0	0	0	0	878	
14	0	0	0	0	422	
15	0	0	0	0	343	
0	0	0	0	0	852	
1	0	0	0	0	57	
2	0	0	0	0	865	
3	0	0	0	0	365	
4	0	0	0	0	533	
5	0	0	0	0	574	
6	0	0	0	0	265	
7	0	0	0	0	827	
8	0	0	0	0	503	
9	0	0	0	0	0	
10	0	0	0	0	958	
11	0	0	0	0	297	
12	0	0	0	0	291	
13	0	0	0	0	642	
14	0	0	0	0	21	
15	0	0	0	0	1022	
0	0	0	0	0	162	
1	0	0	0	0	500	
2	0	0	0	0	538	
3	0	0	0	0	322	
4	0	0	0	0	620	
5	0	0	0	0	553	
6	0	0	0	0	331	
7	0	0	0	0	623	
8	0	0	0	0	326	
9	0	0	0	0	71	
10	0	0	0	0	969	
11	0	0	0	0	498	
12	0	0	0	0	583	
13	0	0	0	0	488	
14	0	0	0	0	203	
15	0	0	0	0	783	
0	0	0	0	0	0	
1	0	0	0	0	1022	
2	0	0	0	0	257	
3	0	0	0	0	652	
4	0	0	0	0	408	
5	0	0	0	0	241	
6	0	0	0	0	633	
7	0	0	0	0	542	
8	0	0	0	0	137	
9	0	0	0	0	1022	
10	0	0	0	0	380	
11	0	0	0	0	300	
12	0	0	0	0	625	
13	0	0	0	0	183	
14	0	0	0	0	621	
15	0	0	0	0	516	
0	0	0	0	0	188	
1	0	0	0	0	375	
2	0	0	0	0	566	
3	0	0	0	0	216	
4	0	0	0	0	929	
5	0	0	0	0	272	
6	0	0	0	0	372	
7	0	0	0	0	979	
8	0	0	0	0	277	
9	0	0	0	0	446	
10	0	0	0	0	852	
11	0	0	0	0	0	
12	0	0	0	0	636	
13	0	0	0	0	537	
14	0	0	0	0	394	
15	0	0	0	0	678	
0	0	0	0	0	393	
1	0	0	0	0	550	
2	0	0	0	0	604	
3	0	0	0	0	240	
4	0	0	0	0	671	
5	0	0	0	0	0	
6	0	0	0	0	919	
7	0	0	0	0	332	
8	0	0	0	0	752	
9	0	0	0	0	280	
10	0	0	0	0	562	
11	0	0	0	0	960	
12	0	0	0	0	0	
13	0	0	0	0	769	
14	0	0	0	0	0	
15	0	0	0	0	1022	
0	0	0	0	0	132	
1	0	0	0	0	0	
2	0	0	0	0	1022	
3	0	0	0	0	0	
4	0	0	0	0	1022	
5	0	0	0	0	59	
6	0	0	0	0	304	
7	0	0	0	0	646	
8	0	0	0	0	0	
9	0	0	0	0	1022	
10	0	0	0	0	136	
11	0	0	0	0	332	
12	0	0	0	0	689	
13	0	0	0	0	0	
14	0	0	0	0	1022	
15	0	0	0	0	248	
0	0	0	0	0	270	
1	0	0	0	0	715	
2	0	0	0	0	0	
3	0	0	0	0	1022	
4	0	0	0	0	0	
5	0	0	0	0	950	
6	0	0	0	0	406	
7	0	0	0	0	195	
8	0	0	0	0	485	
9	0	0	0	0	534	
10	0	0	0	0	0	
11	0	0	0	0	1022	
12	0	0	0	0	0	
13	0	0	0	0	1022	
14	0	0	0	0	104	
15	0	0	0	0	367	
0	0	0	0	0	1022	
1	0	0	0	0	348	
2	0	0	0	0	151	
3	0	0	0	0	678	
4	0	0	0	0	116	
5	0	0	0	0	864	
6	0	0	0	0	175	
7	0	0	0	0	683	
8	0	0	0	0	585	
9	0	0	0	0	255	
10	0	0	0	0	1022	
11	0	0	0	0	288	
12	0	0	0	0	364	
13	0	0	0	0	586	
14	0	0	0	0	603	
15	0	0	0	0	35	
0	0	0	0	0	802	
1	0	0	0	0	384	
2	0	0	0	0	506	
3	0	0	0	0	442	
4	0	0	0	0	475	
5	0	0	0	0	768	
6	0	0	0	0	428	
7	0	0	0	0	432	
8	0	0	0	0	608	
9	0	0	0	0	236	
10	0	0	0	0	660	
11	0	0	0	0	494	
12	0	0	0	0	366	
13	0	0	0	0	720	
14	0	0	0	0	454	
15	0	0	0	0	820	
0	0	0	0	0	376	
1	0	0	0	0	717	
2	0	0	0	0	364	
3	0	0	0	0	946	
4	0	0	0	0	23	
5	0	0	0	0	246	
6	0	0	0	0	857	
7	0	0	0	0	327	
8	0	0	0	0	301	
9	0	0	0	0	432	
10	0	0	0	0	144	
11	0	0	0	0	1022	
12	0	0	0	0	243	
13	0	0	0	0	463	
14	0	0	0	0	779	
15	0	0	0	0	262	
0	0	0	0	0	649	
1	0	0	0	0	678	
2	0	0	0	0	416	
3	0	0	0	0	724	
4	0	0	0	0	448	
5	0	0	0	0	554	
6	0	0	0	0	387	
7	0	0	0	0	417	
8	0	0	0	0	803	
9	0	0	0	0	498	
10	0	0	0	0	433	
11	0	0	0	0	476	
12	0	0	0	0	724	
13	0	0	0	0	421	
14	0	0	0	0	352	
15	0	0	0	0	560	
0	0	0	0	0	523	
1	0	0	0	0	372	
2	0	0	0	0	649	
3	0	0	0	0	401	
4	0	0	0	0	364	
5	0	0	0	0	691	
6	0	0	0	0	561	
7	0	0	0	0	484	
8	0	0	0	0	476	
9	0	0	0	0	471	
10	0	0	0	0	585	
11	0	0	0	0	479	
12	0	0	0	0	739	
13	0	0	0	0	390	
14	0	0	0	0	464	
15	0	0	0	0	546	
0	0	0	0	0	465	
1	0	0	0	0	700	
2	0	0	0	0	467	
3	0	0	0	0	475	
4	0	0	0	0	541	
5	0	0	0	0	533	
6	0	0	0	0	481	
7	0	0	0	0	584	
8	0	0	0	0	430	
9	0	0	0	0	601	
10	0	0	0	0	499	
11	0	0	0	0	427	
12	0	0	0	0	551	
13	0	0	0	0	451	
14	0	0	0	0	484	
15	0	0	0	0	434	
0	0	0	0	0	679	
1	0	0	0	0	460	
2	0	0	0	0	463	
3	0	0	0	0	557	
4	0	0	0	0	503	
5	0	0	0	0	476	
6	0	0	0	0	469	
7	0	0	0	0	555	
8	0	0	0	0	507	
9	0	0	0	0	551	
10	0	0	0	0	481	
11	0	0	0	0	467	
12	0	0	0	0	518	
13	0	0	0	0	497	
14	0	0	0	0	505	
15	0	0	0	0	487	
0	0	0	0	0	499	
1	0	0	0	0	513	
2	0	0	0	0	517	
3	0	0	0	0	505	
4	0	0	0	0	485	
5	0	0	0	0	534	
6	0	0	0	0	459	
7	0	0	0	0	535	
8	0	0	0	0	563	
9	0	0	0	0	475	
10	0	0	0	0	494	
11	0	0	0	0	511	
12	0	0	0	0	507	
13	0	0	0	0	577	
14	0	0	0	0	449	
15	0	0	0	0	519	
0	0	0	0	0	533	
1	0	0	0	0	507	
2	0	0	0	0	533	
3	0	0	0	0	475	
4	0	0	0	0	548	
5	0	0	0	0	430	
6	0	0	0	0	554	
7	0	0	0	0	468	
8	0	0	0	0	464	
9	0	0	0	0	527	
10	0	0	0	0	461	
11	0	0	0	0	529	
12	0	0	0	0	511	
13	0	0	0	0	484	
14	0	0	0	0	515	
15	0	0	0	0	427	
0	0	0	0	0	602	
1	0	0	0	0	458	
2	0	0	0	0	501	
3	0	0	0	0	531	
4	0	0	0	0	479	
5	0	0	0	0	523	
6	0	0	0	0	496	
7	0	0	0	0	523	
8	0	0	0	0	503	
9	0	0	0	0	517	
10	0	0	0	0	411	
11	0	0	0	0	653	
12	0	0	0	0	448	
13	0	0	0	0	506	
14	0	0	0	0	531	
15	0	0	0	0	497	
0	0	0	0	0	519	
1	0	0	0	0	500	
2	0	0	0	0	492	
3	0	0	0	0	531	
4	0	0	0	0	488	
5	0	0	0	0	473	
6	0	0	0	0	548	
7	0	0	0	0	514	
8	0	0	0	0	461	
9	0	0	0	0	543	
10	0	0	0	0	458	
11	0	0	0	0	530	
12	0	0	0	0	481	
13	0	0	0	0	490	
14	0	0	0	0	516	
15	0	0	0	0	528	
0	0	0	0	0	486	
1	0	0	0	0	524	
2	0	0	0	0	487	
3	0	0	0	0	460	
4	0	0	0	0	556	
5	0	0	0	0	456	
6	0	0	0	0	462	
7	0	0	0	0	544	
8	0	0	0	0	498	
9	0	0	0	0	508	
10	0	0	0	0	479	
11	0	0	0	0	498	
12	0	0	0	0	529	
13	0	0	0	0	455	
14	0	0	0	0	530	
15	0	0	0	0	471	
0	0	0	0	0	498	
1	0	0	0	0	504	
2	0	0	0	0	548	
3	0	0	0	0	487	
4	0	0	0	0	496	
5	0	0	0	0	481	
6	0	0	0	0	510	
7	0	0	0	0	519	
8	0	0	0	0	508	
9	0	0	0	0	459	
10	0	0	0	0	568	
11	0	0	0	0	490	
12	0	0	0	0	487	
13	0	0	0	0	526	
14	0	0	0	0	496	
15	0	0	0	0	552	
0	0	0	0	0	499	
1	0	0	0	0	478	
2	0	0	0	0	573	
3	0	0	0	0	529	
4	0	0	0	0	489	
5	0	0	0	0	497	
6	0	0	0	0	499	
7	0	0	0	0	504	
8	0	0	0	0	497	
9	0	0	0	0	455	
10	0	0	0	0	545	
11	0	0	0	0	462	
12	0	0	0	0	514	
13	0	0	0	0	504	
14	0	0	0	0	496	
15	0	0	0	0	526	
0	0	0	0	0	481	
1	0	0	0	0	499	
2	0	0	0	0	509	
3	0	0	0	0	492	
4	0	0	0	0	514	
5	0	0	0	0	492	
6	0	0	0	0	507	
7	0	0	0	0	503	
8	0	0	0	0	517	
9	0	0	0	0	505	
10	0	0	0	0	499	
11	0	0	0	0	551	
12	0	0	0	0	475	
13	0	0	0	0	503	
14	0	0	0	0	495	
15	0	0	0	0	498	
0	0	0	0	0	526	
1	0	0	0	0	484	
2	0	0	0	0	516	
3	0	0	0	0	483	
4	0	0	0	0	542	
5	0	0	0	0	501	
6	0	0	0	0	481	
7	0	0	0	0	520	
8	0	0	0	0	493	
9	0	0	0	0	517	
10	0	0	0	0	491	
11	0	0	0	0	483	
12	0	0	0	0	511	
13	0	0	0	0	488	
14	0	0	0	0	537	
15	0	0	0	0	495	
0	0	0	0	0	450	
1	0	0	0	0	525	
2	0	0	0	0	492	
3	0	0	0	0	503	
4	0	0	0	0	513	
5	0	0	0	0	469	
6	0	0	0	0	526	
7	0	0	0	0	506	
8	0	0	0	0	519	
9	0	0	0	0	486	
10	0	0	0	0	484	
11	0	0	0	0	538	
12	0	0	0	0	481	
13	0	0	0	0	523	
14	0	0	0	0	512	
15	0	0	0	0	503	
0	0	0	0	0	540	
1	0	0	0	0	481	
2	0	0	0	0	488	
3	0	0	0	0	535	
4	0	0	0	0	484	
5	0	0	0	0	524	
6	0	0	0	0	473	
7	0	0	0	0	521	
8	0	0	0	0	512	
9	0	0	0	0	476	
10	0	0	0	0	545	
11	0	0	0	0	484	
12	0	0	0	0	478	
13	0	0	0	0	552	
14	0	0	0	0	478	
15	0	0	0	0	480	
0	0	0	0	0	507	
1	0	0	0	0	477	
2	0	0	0	0	552	
3	0	0	0	0	375	
4	0	0	0	0	463	
5	0	0	0	0	582	
6	0	0	0	0	444	
7	0	0	0	0	526	
8	0	0	0	0	544	
9	0	0	0	0	406	
10	0	0	0	0	615	
11	0	0	0	0	468	
12	0	0	0	0	281	
13	0	0	0	0	780	
14	0	0	0	0	366	
15	0	0	0	0	335	
0	0	0	0	0	808	
1	0	0	0	0	331	
2	0	0	0	0	663	
3	0	0	0	0	528	
4	0	0	0	0	44	
5	0	0	0	0	1022	
6	0	0	0	0	285	
7	0	0	0	0	483	
8	0	0	0	0	496	
9	0	0	0	0	447	
10	0	0	0	0	675	
11	0	0	0	0	449	
12	0	0	0	0	260	
13	0	0	0	0	518	
14	0	0	0	0	626	
15	0	0	0	0	238	
0	0	0	0	0	908	
1	0	0	0	0	298	
2	0	0	0	0	0	
3	0	0	0	0	1022	
4	0	0	0	0	52	
5	0	0	0	0	1022	
6	0	0	0	0	371	
7	0	0	0	0	125	
8	0	0	0	0	983	
9	0	0	0	0	340	
10	0	0	0	0	619	
11	0	0	0	0	612	
12	0	0	0	0	284	
13	0	0	0	0	792	
14	0	0	0	0	491	
15	0	0	0	0	171	
0	0	0	0	0	1012	
1	0	0	0	0	190	
2	0	0	0	0	553	
3	0	0	0	0	318	
4	0	0	0	0	616	
5	0	0	0	0	470	
6	0	0	0	0	509	
7	0	0	0	0	939	
8	0	0	0	0	179	
9	0	0	0	0	286	
10	0	0	0	0	1022	
11	0	0	0	0	44	
12	0	0	0	0	961	
13	0	0	0	0	494	
14	0	0	0	0	0	
15	0	0	0	0	1022	
0	0	0	0	0	105	
1	0	0	0	0	484	
2	0	0	0	0	917	
3	0	0	0	0	70	
4	0	0	0	0	807	
5	0	0	0	0	689	
6	0	0	0	0	303	
7	0	0	0	0	619	
8	0	0	0	0	495	
9	0	0	0	0	504	
10	0	0	0	0	431	
11	0	0	0	0	0	
12	0	0	0	0	765	
13	0	0	0	0	322	
14	0	0	0	0	487	
15	0	0	0	0	328	
0	0	0	0	0	1003	
1	0	0	0	0	169	
2	0	0	0	0	807	
3	0	0	0	0	390	
4	0	0	0	0	337	
5	0	0	0	0	871	
6	0	0	0	0	369	
7	0	0	0	0	406	
8	0	0	0	0	388	
9	0	0	0	0	647	
10	0	0	0	0	717	
11	0	0	0	0	0	
12	0	0	0	0	1022	
13	0	0	0	0	113	
14	0	0	0	0	397	
15	0	0	0	0	939	
0	0	0	0	0	136	
1	0	0	0	0	488	
2	0	0	0	0	793	
3	0	0	0	0	70	
4	0	0	0	0	1021	
5	0	0	0	0	253	
6	0	0	0	0	111	
7	0	0	0	0	833	
8	0	0	0	0	308	
9	0	0	0	0	1020	
10	0	0	0	0	327	
11	0	0	0	0	428	
12	0	0	0	0	515	
13	0	0	0	0	575	
14	0	0	0	0	361	
15	0	0	0	0	863	
0	0	0	0	0	305	
1	0	0	0	0	356	
2	0	0	0	0	912	
3	0	0	0	0	277	
4	0	0	0	0	563	
5	0	0	0	0	332	
6	0	0	0	0	782	
7	0	0	0	0	554	
8	0	0	0	0	160	
9	0	0	0	0	448	
10	0	0	0	0	654	
11	0	0	0	0	312	
12	0	0	0	0	504	
13	0	0	0	0	1021	
14	0	0	0	0	103	
15	0	0	0	0	696	
0	0	0	0	0	569	
1	0	0	0	0	455	
2	0	0	0	0	341	
3	0	0	0	0	846	
4	0	0	0	0	356	
5	0	0	0	0	542	
6	0	0	0	0	438	
7	0	0	0	0	599	
8	0	0	0	0	470	
9	0	0	0	0	660	
10	0	0	0	0	368	
11	0	0	0	0	361	
12	0	0	0	0	687	
13	0	0	0	0	501	
14	0	0	0	0	566	
15	0	0	0	0	473	
0	0	0	0	0	483	
1	0	0	0	0	452	
2	0	0	0	0	589	
3	0	0	0	0	511	
4	0	0	0	0	172	
5	0	0	0	0	763	
6	0	0	0	0	347	
7	0	0	0	0	489	
8	0	0	0	0	467	
9	0	0	0	0	559	
10	0	0	0	0	365	
11	0	0	0	0	590	
12	0	0	0	0	524	
13	0	0	0	0	478	
14	0	0	0	0	439	
15	0	0	0	0	717	
0	0	0	0	0	488	
1	0	0	0	0	433	
2	0	0	0	0	491	
3	0	0	0	0	476	
4	0	0	0	0	465	
5	0	0	0	0	498	
6	0	0	0	0	347	
7	0	0	0	0	657	
8	0	0	0	0	390	
9	0	0	0	0	541	
10	0	0	0	0	483	
11	0	0	0	0	543	
12	0	0	0	0	501	
13	0	0	0	0	489	
14	0	0	0	0	428	
15	0	0	0	0	639	
0	0	0	0	0	445	
1	0	0	0	0	508	
2	0	0	0	0	472	
3	0	0	0	0	519	
4	0	0	0	0	560	
5	0	0	0	0	412	
6	0	0	0	0	492	
7	0	0	0	0	491	
8	0	0	0	0	478	
9	0	0	0	0	527	
10	0	0	0	0	463	
11	0	0	0	0	526	
12	0	0	0	0	400	
13	0	0	0	0	638	
14	0	0	0	0	442	
15	0	0	0	0	514	
0	0	0	0	0	621	
1	0	0	0	0	452	
2	0	0	0	0	537	
3	0	0	0	0	505	
4	0	0	0	0	530	
5	0	0	0	0	507	
6	0	0	0	0	453	
7	0	0	0	0	529	
8	0	0	0	0	611	
9	0	0	0	0	481	
10	0	0	0	0	498	
11	0	0	0	0	551	
12	0	0	0	0	496	
13	0	0	0	0	496	
14	0	0	0	0	478	
15	0	0	0	0	521	
0	0	0	0	0	455	
1	0	0	0	0	527	
2	0	0	0	0	539	
3	0	0	0	0	449	
4	0	0	0	0	511	
5	0	0	0	0	517	
6	0	0	0	0	486	
7	0	0	0	0	504	
8	0	0	0	0	491	
9	0	0	0	0	510	
10	0	0	0	0	508	
11	0	0	0	0	496	
12	0	0	0	0	538	
13	0	0	0	0	450	
14	0	0	0	0	547	
15	0	0	0	0	472	
0	0	0	0	0	503	
1	0	0	0	0	548	
2	0	0	0	0	469	
3	0	0	0	0	553	
4	0	0	0	0	498	
5	0	0	0	0	454	
6	0	0	0	0	577	
7	0	0	0	0	457	
8	0	0	0	0	529	
9	0	0	0	0	523	
10	0	0	0	0	480	
11	0	0	0	0	551	
12	0	0	0	0	487	
13	0	0	0	0	503	
14	0	0	0	0	489	
15	0	0	0	0	511	
0	0	0	0	0	506	
1	0	0	0	0	476	
2	0	0	0	0	566	
3	0	0	0	0	503	
4	0	0	0	0	489	
5	0	0	0	0	520	
6	0	0	0	0	504	
7	0	0	0	0	519	
8	0	0	0	0	499	
9	0	0	0	0	489	
10	0	0	0	0	514	
11	0	0	0	0	508	
12	0	0	0	0	554	
13	0	0	0	0	468	
14	0	0	0	0	508	
15	0	0	0	0	529	
0	0	0	0	0	511	
1	0	0	0	0	518	
2	0	0	0	0	499	
3	0	0	0	0	494	
4	0	0	0	0	499	
5	0	0	0	0	530	
6	0	0	0	0	440	
7	0	0	0	0	566	
8	0	0	0	0	470	
9	0	0	0	0	527	
10	0	0	0	0	474	
11	0	0	0	0	519	
12	0	0	0	0	494	
13	0	0	0	0	514	
14	0	0	0	0	517	
15	0	0	0	0	469	
0	0	0	0	0	580	
1	0	0	0	0	465	
2	0	0	0	0	480	
3	0	0	0	0	515	
4	0	0	0	0	504	
5	0	0	0	0	518	
6	0	0	0	0	504	
7	0	0	0	0	486	
8	0	0	0	0	529	
9	0	0	0	0	496	
10	0	0	0	0	488	
11	0	0	0	0	518	
12	0	0	0	0	484	
13	0	0	0	0	510	
14	0	0	0	0	468	
15	0	0	0	0	521	
0	0	0	0	0	503	
1	0	0	0	0	504	
2	0	0	0	0	503	
3	0	0	0	0	490	
4	0	0	0	0	521	
5	0	0	0	0	499	
6	0	0	0	0	500	
7	0	0	0	0	501	
8	0	0	0	0	500	
9	0	0	0	0	508	
10	0	0	0	0	519	
11	0	0	0	0	528	
12	0	0	0	0	511	
13	0	0	0	0	489	
14	0	0	0	0	494	
15	0	0	0	0	521	
0	0	0	0	0	491	
1	0	0	0	0	511	
2	0	0	0	0	525	
3	0	0	0	0	486	
4	0	0	0	0	509	
5	0	0	0	0	515	
6	0	0	0	0	507	
7	0	0	0	0	516	
8	0	0	0	0	505	
9	0	0	0	0	513	
10	0	0	0	0	488	
11	0	0	0	0	515	
12	0	0	0	0	524	
13	0	0	0	0	505	
14	0	0	0	0	506	
15	0	0	0	0	481	
0	0	0	0	0	513	
1	0	0	0	0	491	
2	0	0	0	0	507	
3	0	0	0	0	509	
4	0	0	0	0	493	
5	0	0	0	0	515	
6	0	0	0	0	491	
7	0	0	0	0	511	
8	0	0	0	0	513	
9	0	0	0	0	504	
10	0	0	0	0	517	
11	0	0	0	0	492	
12	0	0	0	0	504	
13	0	0	0	0	513	
14	0	0	0	0	501	
15	0	0	0	0	520	
0	0	0	0	0	496	
1	0	0	0	0	500	
2	0	0	0	0	518	
3	0	0	0	0	503	
4	0	0	0	0	522	
5	0	0	0	0	486	
6	0	0	0	0	507	
7	0	0	0	0	517	
8	0	0	0	0	484	
9	0	0	0	0	498	
10	0	0	0	0	486	
11	0	0	0	0	507	
12	0	0	0	0	497	
13	0	0	0	0	493	
14	0	0	0	0	509	
15	0	0	0	0	502	
0	0	0	0	0	488	
1	0	0	0	0	491	
2	0	0	0	0	508	
3	0	0	0	0	515	
4	0	0	0	0	506	
5	0	0	0	0	514	
6	0	0	0	0	497	
7	0	0	0	0	516	
8	0	0	0	0	525	
9	0	0	0	0	478	
10	0	0	0	0	504	
11	0	0	0	0	476	
12	0	0	0	0	516	
13	0	0	0	0	513	
14	0	0	0	0	463	
15	0	0	0	0	513	
0	0	0	0	0	487	
1	0	0	0	0	499	
2	0	0	0	0	505	
3	0	0	0	0	532	
4	0	0	0	0	493	
5	0	0	0	0	515	
6	0	0	0	0	503	
7	0	0	0	0	478	
8	0	0	0	0	542	
9	0	0	0	0	473	
10	0	0	0	0	520	
11	0	0	0	0	492	
12	0	0	0	0	490	
13	0	0	0	0	572	
14	0	0	0	0	460	
15	0	0	0	0	504	
0	0	0	0	0	515	
1	0	0	0	0	472	
2	0	0	0	0	595	
3	0	0	0	0	463	
4	0	0	0	0	493	
5	0	0	0	0	535	
6	0	0	0	0	489	
7	0	0	0	0	556	
8	0	0	0	0	509	
9	0	0	0	0	477	
10	0	0	0	0	540	
11	0	0	0	0	483	
12	0	0	0	0	483	
13	0	0	0	0	538	
14	0	0	0	0	466	
15	0	0	0	0	526	
0	0	0	0	0	505	
1	0	0	0	0	481	
2	0	0	0	0	515	
3	0	0	0	0	480	
4	0	0	0	0	521	
5	0	0	0	0	492	
6	0	0	0	0	508	
7	0	0	0	0	499	
8	0	0	0	0	489	
9	0	0	0	0	537	
10	0	0	0	0	486	
11	0	0	0	0	525	
12	0	0	0	0	478	
13	0	0	0	0	500	
14	0	0	0	0	507	
15	0	0	0	0	483	
0	0	0	0	0	532	
1	0	0	0	0	485	
2	0	0	0	0	488	
3	0	0	0	0	504	
4	0	0	0	0	481	
5	0	0	0	0	540	
6	0	0	0	0	515	
7	0	0	0	0	519	
8	0	0	0	0	518	
9	0	0	0	0	496	
10	0	0	0	0	577	
11	0	0	0	0	529	
12	0	0	0	0	506	
13	0	0	0	0	500	
14	0	0	0	0	505	
15	0	0	0	0	503	
0	0	0	0	0	503	
1	0	0	0	0	492	
2	0	0	0	0	524	
3	0	0	0	0	509	
4	0	0	0	0	496	
5	0	0	0	0	503	
6	0	0	0	0	493	
7	0	0	0	0	509	
8	0	0	0	0	495	
9	0	0	0	0	493	
10	0	0	0	0	528	
11	0	0	0	0	508	
12	0	0	0	0	509	
13	0	0	0	0	508	
14	0	0	0	0	465	
15	0	0	0	0	506	
0	0	0	0	0	491	
1	0	0	0	0	529	
2	0	0	0	0	491	
3	0	0	0	0	483	
4	0	0	0	0	516	
5	0	0	0	0	504	
6	0	0	0	0	504	
7	0	0	0	0	507	
8	0	0	0	0	465	
9	0	0	0	0	499	
10	0	0	0	0	505	
11	0	0	0	0	502	
12	0	0	0	0	521	
13	0	0	0	0	488	
14	0	0	0	0	547	
15	0	0	0	0	512	
0	0	0	0	0	498	
1	0	0	0	0	503	
2	0	0	0	0	497	
3	0	0	0	0	520	
4	0	0	0	0	500	
5	0	0	0	0	488	
6	0	0	0	0	519	
7	0	0	0	0	494	
8	0	0	0	0	529	
9	0	0	0	0	477	
10	0	0	0	0	504	
11	0	0	0	0	520	
12	0	0	0	0	475	
13	0	0	0	0	528	
14	0	0	0	0	488	
15	0	0	0	0	490	
0	0	0	0	0	513	
1	0	0	0	0	455	
2	0	0	0	0	532	
3	0	0	0	0	510	
4	0	0	0	0	499	
5	0	0	0	0	515	
6	0	0	0	0	449	
7	0	0	0	0	532	
8	0	0	0	0	500	
9	0	0	0	0	493	
10	0	0	0	0	508	
11	0	0	0	0	454	
12	0	0	0	0	518	
13	0	0	0	0	505	
14	0	0	0	0	510	
15	0	0	0	0	512	
0	0	0	0	0	429	
1	0	0	0	0	548	
2	0	0	0	0	487	
3	0	0	0	0	494	
4	0	0	0	0	543	
5	0	0	0	0	454	
6	0	0	0	0	529	
7	0	0	0	0	513	
8	0	0	0	0	476	
9	0	0	0	0	512	
10	0	0	0	0	462	
11	0	0	0	0	551	
12	0	0	0	0	511	
13	0	0	0	0	489	
14	0	0	0	0	525	
15	0	0	0	0	435	
0	0	0	0	0	564	
1	0	0	0	0	487	
2	0	0	0	0	479	
3	0	0	0	0	539	
4	0	0	0	0	453	
5	0	0	0	0	584	
6	0	0	0	0	517	
7	0	0	0	0	491	
8	0	0	0	0	542	
9	0	0	0	0	467	
10	0	0	0	0	550	
11	0	0	0	0	480	
12	0	0	0	0	473	
13	0	0	0	0	500	
14	0	0	0	0	445	
15	0	0	0	0	571	
0	0	0	0	0	497	
1	0	0	0	0	471	
2	0	0	0	0	537	
3	0	0	0	0	431	
4	0	0	0	0	549	
5	0	0	0	0	496	
6	0	0	0	0	485	
7	0	0	0	0	529	
8	0	0	0	0	449	
9	0	0	0	0	559	
10	0	0	0	0	511	
11	0	0	0	0	504	
12	0	0	0	0	537	
13	0	0	0	0	446	
14	0	0	0	0	547	
15	0	0	0	0	489	
0	0	0	0	0	483	
1	0	0	0	0	537	
2	0	0	0	0	451	
3	0	0	0	0	550	
4	0	0	0	0	509	
5	0	0	0	0	486	
6	0	0	0	0	525	
7	0	0	0	0	452	
8	0	0	0	0	556	
9	0	0	0	0	507	
10	0	0	0	0	473	
11	0	0	0	0	541	
12	0	0	0	0	462	
13	0	0	0	0	549	
14	0	0	0	0	498	
15	0	0	0	0	496	
0	0	0	0	0	523	
1	0	0	0	0	454	
2	0	0	0	0	529	
3	0	0	0	0	505	
4	0	0	0	0	504	
5	0	0	0	0	545	
6	0	0	0	0	483	
7	0	0	0	0	524	
8	0	0	0	0	505	
9	0	0	0	0	491	
10	0	0	0	0	527	
11	0	0	0	0	459	
12	0	0	0	0	542	
13	0	0	0	0	507	
14	0	0	0	0	492	
15	0	0	0	0	524	
0	0	0	0	0	447	
1	0	0	0	0	550	
2	0	0	0	0	504	
3	0	0	0	0	461	
4	0	0	0	0	552	
5	0	0	0	0	452	
6	0	0	0	0	577	
7	0	0	0	0	530	
8	0	0	0	0	483	
9	0	0	0	0	541	
10	0	0	0	0	446	
11	0	0	0	0	549	
12	0	0	0	0	504	
13	0	0	0	0	471	
14	0	0	0	0	519	
15	0	0	0	0	443	
0	0	0	0	0	546	
1	0	0	0	0	473	
2	0	0	0	0	486	
3	0	0	0	0	528	
4	0	0	0	0	450	
5	0	0	0	0	558	
6	0	0	0	0	496	
7	0	0	0	0	464	
8	0	0	0	0	537	
9	0	0	0	0	458	
10	0	0	0	0	565	
11	0	0	0	0	501	
12	0	0	0	0	488	
13	0	0	0	0	534	
14	0	0	0	0	486	
15	0	0	0	0	557	
0	0	0	0	0	511	
1	0	0	0	0	476	
2	0	0	0	0	511	
3	0	0	0	0	459	
4	0	0	0	0	558	
5	0	0	0	0	494	
6	0	0	0	0	482	
7	0	0	0	0	534	
8	0	0	0	0	451	
9	0	0	0	0	549	
10	0	0	0	0	532	
11	0	0	0	0	476	
12	0	0	0	0	531	
13	0	0	0	0	462	
14	0	0	0	0	568	
15	0	0	0	0	503	
0	0	0	0	0	502	
1	0	0	0	0	531	
2	0	0	0	0	463	
3	0	0	0	0	556	
4	0	0	0	0	525	
5	0	0	0	0	459	
6	0	0	0	0	527	
7	0	0	0	0	440	
8	0	0	0	0	556	
9	0	0	0	0	514	
10	0	0	0	0	476	
11	0	0	0	0	522	
12	0	0	0	0	452	
13	0	0	0	0	566	
14	0	0	0	0	511	
15	0	0	0	0	493	
0	0	0	0	0	556	
1	0	0	0	0	451	
2	0	0	0	0	571	
3	0	0	0	0	518	
4	0	0	0	0	485	
5	0	0	0	0	538	
6	0	0	0	0	454	
7	0	0	0	0	558	
8	0	0	0	0	492	
9	0	0	0	0	488	
10	0	0	0	0	552	
11	0	0	0	0	465	
12	0	0	0	0	543	
13	0	0	0	0	515	
14	0	0	0	0	479	
15	0	0	0	0	520	
0	0	0	0	0	481	
1	0	0	0	0	528	
