# OpenSignals Text File Format. Version 1
# {"98:D3:81:FD:6D:86": {"position": 0, "device": "bitalino_rev", "device name": "98:D3:81:FD:6D:86", "device connection": "BTH98:D3:81:FD:6D:86", "sampling rate": 100, "resolution": [4, 1, 1, 1, 1, 10], "firmware version": 1282, "comments": "", "keywords": "", "mode": 0, "sync interval": 2, "date": "2023-9-8", "time": "10:21:7.659", "channels": [1], "sensor": ["EMGBITREV"], "label": ["A1"], "column": ["nSeq", "I1", "I2", "O1", "O2", "A1"], "special": [{}], "digital IO": [0, 0, 1, 1]}}
# EndOfHeader
0	0	0	0	0	535	
1	0	0	0	0	479	
2	0	0	0	0	516	
3	0	0	0	0	515	
4	0	0	0	0	428	
5	0	0	0	0	550	
6	0	0	0	0	459	
7	0	0	0	0	528	
8	0	0	0	0	526	
9	0	0	0	0	409	
10	0	0	0	0	556	
11	0	0	0	0	465	
12	0	0	0	0	525	
13	0	0	0	0	530	
14	0	0	0	0	412	
15	0	0	0	0	556	
0	0	0	0	0	464	
1	0	0	0	0	518	
2	0	0	0	0	495	
3	0	0	0	0	431	
4	0	0	0	0	575	
5	0	0	0	0	435	
6	0	0	0	0	540	
7	0	0	0	0	507	
8	0	0	0	0	443	
9	0	0	0	0	561	
10	0	0	0	0	452	
11	0	0	0	0	535	
12	0	0	0	0	526	
13	0	0	0	0	413	
14	0	0	0	0	582	
15	0	0	0	0	407	
0	0	0	0	0	567	
1	0	0	0	0	500	
2	0	0	0	0	445	
3	0	0	0	0	552	
4	0	0	0	0	431	
5	0	0	0	0	550	
6	0	0	0	0	522	
7	0	0	0	0	409	
8	0	0	0	0	583	
9	0	0	0	0	458	
10	0	0	0	0	547	
11	0	0	0	0	497	
12	0	0	0	0	412	
13	0	0	0	0	566	
14	0	0	0	0	444	
15	0	0	0	0	549	
0	0	0	0	0	529	
1	0	0	0	0	401	
2	0	0	0	0	593	
3	0	0	0	0	415	
4	0	0	0	0	542	
5	0	0	0	0	538	
6	0	0	0	0	435	
7	0	0	0	0	582	
8	0	0	0	0	410	
9	0	0	0	0	559	
10	0	0	0	0	512	
11	0	0	0	0	401	
12	0	0	0	0	582	
13	0	0	0	0	449	
14	0	0	0	0	549	
15	0	0	0	0	510	
0	0	0	0	0	417	
1	0	0	0	0	572	
2	0	0	0	0	428	
3	0	0	0	0	548	
4	0	0	0	0	520	
5	0	0	0	0	396	
6	0	0	0	0	551	
7	0	0	0	0	465	
8	0	0	0	0	555	
9	0	0	0	0	532	
10	0	0	0	0	392	
11	0	0	0	0	600	
12	0	0	0	0	423	
13	0	0	0	0	549	
14	0	0	0	0	503	
15	0	0	0	0	402	
0	0	0	0	0	590	
1	0	0	0	0	417	
2	0	0	0	0	532	
3	0	0	0	0	539	
4	0	0	0	0	403	
5	0	0	0	0	569	
6	0	0	0	0	426	
7	0	0	0	0	589	
8	0	0	0	0	492	
9	0	0	0	0	407	
10	0	0	0	0	577	
11	0	0	0	0	438	
12	0	0	0	0	535	
13	0	0	0	0	516	
14	0	0	0	0	398	
15	0	0	0	0	575	
0	0	0	0	0	415	
1	0	0	0	0	564	
2	0	0	0	0	503	
3	0	0	0	0	433	
4	0	0	0	0	580	
5	0	0	0	0	436	
6	0	0	0	0	550	
7	0	0	0	0	523	
8	0	0	0	0	411	
9	0	0	0	0	596	
10	0	0	0	0	447	
11	0	0	0	0	526	
12	0	0	0	0	536	
13	0	0	0	0	405	
14	0	0	0	0	573	
15	0	0	0	0	441	
0	0	0	0	0	562	
1	0	0	0	0	525	
2	0	0	0	0	379	
3	0	0	0	0	563	
4	0	0	0	0	447	
5	0	0	0	0	542	
6	0	0	0	0	532	
7	0	0	0	0	401	
8	0	0	0	0	563	
9	0	0	0	0	451	
10	0	0	0	0	531	
11	0	0	0	0	524	
12	0	0	0	0	392	
13	0	0	0	0	567	
14	0	0	0	0	458	
15	0	0	0	0	535	
0	0	0	0	0	505	
1	0	0	0	0	418	
2	0	0	0	0	584	
3	0	0	0	0	443	
4	0	0	0	0	555	
5	0	0	0	0	514	
6	0	0	0	0	418	
7	0	0	0	0	577	
8	0	0	0	0	433	
9	0	0	0	0	551	
10	0	0	0	0	515	
11	0	0	0	0	399	
12	0	0	0	0	595	
13	0	0	0	0	433	
14	0	0	0	0	537	
15	0	0	0	0	528	
0	0	0	0	0	435	
1	0	0	0	0	563	
2	0	0	0	0	442	
3	0	0	0	0	552	
4	0	0	0	0	509	
5	0	0	0	0	412	
6	0	0	0	0	558	
7	0	0	0	0	452	
8	0	0	0	0	533	
9	0	0	0	0	512	
10	0	0	0	0	377	
11	0	0	0	0	619	
12	0	0	0	0	439	
13	0	0	0	0	503	
14	0	0	0	0	534	
15	0	0	0	0	423	
0	0	0	0	0	587	
1	0	0	0	0	472	
2	0	0	0	0	518	
3	0	0	0	0	516	
4	0	0	0	0	422	
5	0	0	0	0	558	
6	0	0	0	0	479	
7	0	0	0	0	516	
8	0	0	0	0	543	
9	0	0	0	0	415	
10	0	0	0	0	581	
11	0	0	0	0	440	
12	0	0	0	0	556	
13	0	0	0	0	483	
14	0	0	0	0	449	
15	0	0	0	0	573	
0	0	0	0	0	423	
1	0	0	0	0	570	
2	0	0	0	0	499	
3	0	0	0	0	396	
4	0	0	0	0	624	
5	0	0	0	0	405	
6	0	0	0	0	575	
7	0	0	0	0	497	
8	0	0	0	0	414	
9	0	0	0	0	591	
10	0	0	0	0	413	
11	0	0	0	0	571	
12	0	0	0	0	510	
13	0	0	0	0	370	
14	0	0	0	0	601	
15	0	0	0	0	446	
0	0	0	0	0	556	
1	0	0	0	0	521	
2	0	0	0	0	401	
3	0	0	0	0	581	
4	0	0	0	0	450	
5	0	0	0	0	527	
6	0	0	0	0	533	
7	0	0	0	0	428	
8	0	0	0	0	561	
9	0	0	0	0	447	
10	0	0	0	0	547	
11	0	0	0	0	515	
12	0	0	0	0	402	
13	0	0	0	0	585	
14	0	0	0	0	451	
15	0	0	0	0	560	
0	0	0	0	0	513	
1	0	0	0	0	379	
2	0	0	0	0	613	
3	0	0	0	0	417	
4	0	0	0	0	558	
5	0	0	0	0	530	
6	0	0	0	0	383	
7	0	0	0	0	596	
8	0	0	0	0	435	
9	0	0	0	0	505	
10	0	0	0	0	553	
11	0	0	0	0	410	
12	0	0	0	0	559	
13	0	0	0	0	488	
14	0	0	0	0	505	
15	0	0	0	0	512	
0	0	0	0	0	447	
1	0	0	0	0	552	
2	0	0	0	0	506	
3	0	0	0	0	482	
4	0	0	0	0	511	
5	0	0	0	0	421	
6	0	0	0	0	594	
7	0	0	0	0	448	
8	0	0	0	0	533	
9	0	0	0	0	529	
10	0	0	0	0	406	
11	0	0	0	0	557	
12	0	0	0	0	481	
13	0	0	0	0	508	
14	0	0	0	0	521	
15	0	0	0	0	435	
0	0	0	0	0	551	
1	0	0	0	0	483	
2	0	0	0	0	503	
3	0	0	0	0	521	
4	0	0	0	0	413	
5	0	0	0	0	543	
6	0	0	0	0	492	
7	0	0	0	0	495	
8	0	0	0	0	539	
9	0	0	0	0	445	
10	0	0	0	0	544	
11	0	0	0	0	490	
12	0	0	0	0	494	
13	0	0	0	0	507	
14	0	0	0	0	494	
15	0	0	0	0	536	
0	0	0	0	0	492	
1	0	0	0	0	490	
2	0	0	0	0	540	
3	0	0	0	0	443	
4	0	0	0	0	557	
5	0	0	0	0	486	
6	0	0	0	0	517	
7	0	0	0	0	531	
8	0	0	0	0	443	
9	0	0	0	0	543	
10	0	0	0	0	472	
11	0	0	0	0	508	
12	0	0	0	0	519	
13	0	0	0	0	443	
14	0	0	0	0	551	
15	0	0	0	0	465	
0	0	0	0	0	523	
1	0	0	0	0	508	
2	0	0	0	0	462	
3	0	0	0	0	536	
4	0	0	0	0	487	
5	0	0	0	0	489	
6	0	0	0	0	545	
7	0	0	0	0	408	
8	0	0	0	0	599	
9	0	0	0	0	489	
10	0	0	0	0	508	
11	0	0	0	0	524	
12	0	0	0	0	441	
13	0	0	0	0	557	
14	0	0	0	0	483	
15	0	0	0	0	494	
0	0	0	0	0	548	
1	0	0	0	0	451	
2	0	0	0	0	540	
3	0	0	0	0	508	
4	0	0	0	0	495	
5	0	0	0	0	527	
6	0	0	0	0	459	
7	0	0	0	0	568	
8	0	0	0	0	480	
9	0	0	0	0	502	
10	0	0	0	0	510	
11	0	0	0	0	449	
12	0	0	0	0	555	
13	0	0	0	0	483	
14	0	0	0	0	503	
15	0	0	0	0	552	
0	0	0	0	0	447	
1	0	0	0	0	558	
2	0	0	0	0	487	
3	0	0	0	0	511	
4	0	0	0	0	504	
5	0	0	0	0	451	
6	0	0	0	0	547	
7	0	0	0	0	492	
8	0	0	0	0	502	
9	0	0	0	0	548	
10	0	0	0	0	416	
11	0	0	0	0	572	
12	0	0	0	0	490	
13	0	0	0	0	471	
14	0	0	0	0	573	
15	0	0	0	0	442	
0	0	0	0	0	548	
1	0	0	0	0	454	
2	0	0	0	0	527	
3	0	0	0	0	516	
4	0	0	0	0	458	
5	0	0	0	0	562	
6	0	0	0	0	466	
7	0	0	0	0	513	
8	0	0	0	0	514	
9	0	0	0	0	419	
10	0	0	0	0	558	
11	0	0	0	0	494	
12	0	0	0	0	501	
13	0	0	0	0	539	
14	0	0	0	0	438	
15	0	0	0	0	558	
0	0	0	0	0	492	
1	0	0	0	0	487	
2	0	0	0	0	519	
3	0	0	0	0	434	
4	0	0	0	0	589	
5	0	0	0	0	484	
6	0	0	0	0	493	
7	0	0	0	0	548	
8	0	0	0	0	447	
9	0	0	0	0	564	
10	0	0	0	0	495	
11	0	0	0	0	512	
12	0	0	0	0	530	
13	0	0	0	0	433	
14	0	0	0	0	556	
15	0	0	0	0	523	
0	0	0	0	0	495	
1	0	0	0	0	520	
2	0	0	0	0	421	
3	0	0	0	0	588	
4	0	0	0	0	488	
5	0	0	0	0	483	
6	0	0	0	0	523	
7	0	0	0	0	406	
8	0	0	0	0	619	
9	0	0	0	0	465	
10	0	0	0	0	486	
11	0	0	0	0	534	
12	0	0	0	0	438	
13	0	0	0	0	577	
14	0	0	0	0	477	
15	0	0	0	0	507	
0	0	0	0	0	511	
1	0	0	0	0	462	
2	0	0	0	0	564	
3	0	0	0	0	491	
4	0	0	0	0	480	
5	0	0	0	0	529	
6	0	0	0	0	440	
7	0	0	0	0	553	
8	0	0	0	0	465	
9	0	0	0	0	525	
10	0	0	0	0	505	
11	0	0	0	0	431	
12	0	0	0	0	564	
13	0	0	0	0	481	
14	0	0	0	0	502	
15	0	0	0	0	533	
0	0	0	0	0	415	
1	0	0	0	0	609	
2	0	0	0	0	484	
3	0	0	0	0	495	
4	0	0	0	0	529	
5	0	0	0	0	417	
6	0	0	0	0	584	
7	0	0	0	0	487	
8	0	0	0	0	487	
9	0	0	0	0	532	
10	0	0	0	0	435	
11	0	0	0	0	579	
12	0	0	0	0	506	
13	0	0	0	0	499	
14	0	0	0	0	528	
15	0	0	0	0	445	
0	0	0	0	0	568	
1	0	0	0	0	486	
2	0	0	0	0	491	
3	0	0	0	0	476	
4	0	0	0	0	479	
5	0	0	0	0	550	
6	0	0	0	0	487	
7	0	0	0	0	500	
8	0	0	0	0	508	
9	0	0	0	0	451	
10	0	0	0	0	563	
11	0	0	0	0	490	
12	0	0	0	0	515	
13	0	0	0	0	491	
14	0	0	0	0	442	
15	0	0	0	0	568	
0	0	0	0	0	497	
1	0	0	0	0	469	
2	0	0	0	0	541	
3	0	0	0	0	442	
4	0	0	0	0	562	
5	0	0	0	0	474	
6	0	0	0	0	495	
7	0	0	0	0	527	
8	0	0	0	0	432	
9	0	0	0	0	555	
10	0	0	0	0	488	
11	0	0	0	0	513	
12	0	0	0	0	515	
13	0	0	0	0	446	
14	0	0	0	0	566	
15	0	0	0	0	496	
0	0	0	0	0	497	
1	0	0	0	0	532	
2	0	0	0	0	430	
3	0	0	0	0	584	
4	0	0	0	0	496	
5	0	0	0	0	511	
6	0	0	0	0	520	
7	0	0	0	0	430	
8	0	0	0	0	583	
9	0	0	0	0	491	
10	0	0	0	0	496	
11	0	0	0	0	532	
12	0	0	0	0	431	
13	0	0	0	0	576	
14	0	0	0	0	480	
15	0	0	0	0	517	
0	0	0	0	0	528	
1	0	0	0	0	398	
2	0	0	0	0	601	
3	0	0	0	0	486	
4	0	0	0	0	489	
5	0	0	0	0	539	
6	0	0	0	0	409	
7	0	0	0	0	618	
8	0	0	0	0	457	
9	0	0	0	0	527	
10	0	0	0	0	545	
11	0	0	0	0	391	
12	0	0	0	0	605	
13	0	0	0	0	455	
14	0	0	0	0	559	
15	0	0	0	0	526	
0	0	0	0	0	383	
1	0	0	0	0	620	
2	0	0	0	0	455	
3	0	0	0	0	519	
4	0	0	0	0	535	
5	0	0	0	0	407	
6	0	0	0	0	590	
7	0	0	0	0	480	
8	0	0	0	0	553	
9	0	0	0	0	491	
10	0	0	0	0	402	
11	0	0	0	0	611	
12	0	0	0	0	477	
13	0	0	0	0	527	
14	0	0	0	0	524	
15	0	0	0	0	398	
0	0	0	0	0	608	
1	0	0	0	0	467	
2	0	0	0	0	519	
3	0	0	0	0	535	
4	0	0	0	0	387	
5	0	0	0	0	620	
6	0	0	0	0	448	
7	0	0	0	0	515	
8	0	0	0	0	536	
9	0	0	0	0	398	
10	0	0	0	0	580	
11	0	0	0	0	466	
12	0	0	0	0	547	
13	0	0	0	0	505	
14	0	0	0	0	403	
15	0	0	0	0	646	
0	0	0	0	0	451	
1	0	0	0	0	495	
2	0	0	0	0	572	
3	0	0	0	0	377	
4	0	0	0	0	611	
5	0	0	0	0	465	
6	0	0	0	0	537	
7	0	0	0	0	524	
8	0	0	0	0	430	
9	0	0	0	0	644	
10	0	0	0	0	463	
11	0	0	0	0	503	
12	0	0	0	0	521	
13	0	0	0	0	456	
14	0	0	0	0	558	
15	0	0	0	0	487	
0	0	0	0	0	477	
1	0	0	0	0	530	
2	0	0	0	0	451	
3	0	0	0	0	558	
4	0	0	0	0	526	
5	0	0	0	0	490	
6	0	0	0	0	506	
7	0	0	0	0	458	
8	0	0	0	0	573	
9	0	0	0	0	515	
10	0	0	0	0	501	
11	0	0	0	0	518	
12	0	0	0	0	481	
13	0	0	0	0	525	
14	0	0	0	0	487	
15	0	0	0	0	503	
0	0	0	0	0	498	
1	0	0	0	0	446	
2	0	0	0	0	581	
3	0	0	0	0	506	
4	0	0	0	0	511	
5	0	0	0	0	557	
6	0	0	0	0	462	
7	0	0	0	0	590	
8	0	0	0	0	443	
9	0	0	0	0	560	
10	0	0	0	0	508	
11	0	0	0	0	427	
12	0	0	0	0	564	
13	0	0	0	0	540	
14	0	0	0	0	483	
15	0	0	0	0	556	
0	0	0	0	0	431	
1	0	0	0	0	544	
2	0	0	0	0	517	
3	0	0	0	0	536	
4	0	0	0	0	523	
5	0	0	0	0	420	
6	0	0	0	0	585	
7	0	0	0	0	515	
8	0	0	0	0	481	
9	0	0	0	0	517	
10	0	0	0	0	429	
11	0	0	0	0	592	
12	0	0	0	0	465	
13	0	0	0	0	509	
14	0	0	0	0	484	
15	0	0	0	0	463	
0	0	0	0	0	570	
1	0	0	0	0	512	
2	0	0	0	0	484	
3	0	0	0	0	503	
4	0	0	0	0	435	
5	0	0	0	0	593	
6	0	0	0	0	449	
7	0	0	0	0	570	
8	0	0	0	0	492	
9	0	0	0	0	422	
10	0	0	0	0	579	
11	0	0	0	0	523	
12	0	0	0	0	487	
13	0	0	0	0	487	
14	0	0	0	0	523	
15	0	0	0	0	539	
0	0	0	0	0	485	
1	0	0	0	0	495	
2	0	0	0	0	514	
3	0	0	0	0	404	
4	0	0	0	0	624	
5	0	0	0	0	472	
6	0	0	0	0	520	
7	0	0	0	0	520	
8	0	0	0	0	448	
9	0	0	0	0	532	
10	0	0	0	0	555	
11	0	0	0	0	483	
12	0	0	0	0	513	
13	0	0	0	0	446	
14	0	0	0	0	581	
15	0	0	0	0	473	
0	0	0	0	0	516	
1	0	0	0	0	514	
2	0	0	0	0	456	
3	0	0	0	0	574	
4	0	0	0	0	516	
5	0	0	0	0	444	
6	0	0	0	0	544	
7	0	0	0	0	432	
8	0	0	0	0	559	
9	0	0	0	0	484	
10	0	0	0	0	514	
11	0	0	0	0	551	
12	0	0	0	0	428	
13	0	0	0	0	578	
14	0	0	0	0	456	
15	0	0	0	0	527	
0	0	0	0	0	507	
1	0	0	0	0	467	
2	0	0	0	0	563	
3	0	0	0	0	531	
4	0	0	0	0	487	
5	0	0	0	0	549	
6	0	0	0	0	417	
7	0	0	0	0	586	
8	0	0	0	0	491	
9	0	0	0	0	517	
10	0	0	0	0	496	
11	0	0	0	0	449	
12	0	0	0	0	544	
13	0	0	0	0	528	
14	0	0	0	0	475	
15	0	0	0	0	514	
0	0	0	0	0	433	
1	0	0	0	0	597	
2	0	0	0	0	526	
3	0	0	0	0	470	
4	0	0	0	0	512	
5	0	0	0	0	425	
6	0	0	0	0	591	
7	0	0	0	0	483	
8	0	0	0	0	500	
9	0	0	0	0	574	
10	0	0	0	0	407	
11	0	0	0	0	582	
12	0	0	0	0	500	
13	0	0	0	0	486	
14	0	0	0	0	516	
15	0	0	0	0	452	
0	0	0	0	0	591	
1	0	0	0	0	512	
2	0	0	0	0	528	
3	0	0	0	0	541	
4	0	0	0	0	451	
5	0	0	0	0	562	
6	0	0	0	0	499	
7	0	0	0	0	519	
8	0	0	0	0	496	
9	0	0	0	0	436	
10	0	0	0	0	524	
11	0	0	0	0	515	
12	0	0	0	0	483	
13	0	0	0	0	524	
14	0	0	0	0	432	
15	0	0	0	0	576	
0	0	0	0	0	486	
1	0	0	0	0	511	
2	0	0	0	0	499	
3	0	0	0	0	474	
4	0	0	0	0	567	
5	0	0	0	0	529	
6	0	0	0	0	477	
7	0	0	0	0	503	
8	0	0	0	0	441	
9	0	0	0	0	578	
10	0	0	0	0	513	
11	0	0	0	0	535	
12	0	0	0	0	527	
13	0	0	0	0	411	
14	0	0	0	0	621	
15	0	0	0	0	451	
0	0	0	0	0	569	
1	0	0	0	0	511	
2	0	0	0	0	389	
3	0	0	0	0	674	
4	0	0	0	0	472	
5	0	0	0	0	577	
6	0	0	0	0	520	
7	0	0	0	0	445	
8	0	0	0	0	624	
9	0	0	0	0	548	
10	0	0	0	0	484	
11	0	0	0	0	559	
12	0	0	0	0	402	
13	0	0	0	0	574	
14	0	0	0	0	558	
15	0	0	0	0	460	
0	0	0	0	0	499	
1	0	0	0	0	446	
2	0	0	0	0	559	
3	0	0	0	0	489	
4	0	0	0	0	377	
5	0	0	0	0	695	
6	0	0	0	0	470	
7	0	0	0	0	516	
8	0	0	0	0	448	
9	0	0	0	0	573	
10	0	0	0	0	569	
11	0	0	0	0	466	
12	0	0	0	0	513	
13	0	0	0	0	579	
14	0	0	0	0	128	
15	0	0	0	0	681	
0	0	0	0	0	360	
1	0	0	0	0	714	
2	0	0	0	0	386	
3	0	0	0	0	664	
4	0	0	0	0	389	
5	0	0	0	0	264	
6	0	0	0	0	904	
7	0	0	0	0	65	
8	0	0	0	0	824	
9	0	0	0	0	531	
10	0	0	0	0	321	
11	0	0	0	0	809	
12	0	0	0	0	292	
13	0	0	0	0	633	
14	0	0	0	0	515	
15	0	0	0	0	517	
0	0	0	0	0	841	
1	0	0	0	0	0	
2	0	0	0	0	1022	
3	0	0	0	0	165	
4	0	0	0	0	524	
5	0	0	0	0	605	
6	0	0	0	0	200	
7	0	0	0	0	900	
8	0	0	0	0	261	
9	0	0	0	0	371	
10	0	0	0	0	755	
11	0	0	0	0	870	
12	0	0	0	0	257	
13	0	0	0	0	569	
14	0	0	0	0	318	
15	0	0	0	0	778	
0	0	0	0	0	467	
1	0	0	0	0	965	
2	0	0	0	0	188	
3	0	0	0	0	155	
4	0	0	0	0	816	
5	0	0	0	0	559	
6	0	0	0	0	207	
7	0	0	0	0	1022	
8	0	0	0	0	250	
9	0	0	0	0	756	
10	0	0	0	0	193	
11	0	0	0	0	545	
12	0	0	0	0	301	
13	0	0	0	0	666	
14	0	0	0	0	355	
15	0	0	0	0	498	
0	0	0	0	0	681	
1	0	0	0	0	191	
2	0	0	0	0	386	
3	0	0	0	0	724	
4	0	0	0	0	512	
5	0	0	0	0	942	
6	0	0	0	0	354	
7	0	0	0	0	788	
8	0	0	0	0	379	
9	0	0	0	0	159	
10	0	0	0	0	793	
11	0	0	0	0	247	
12	0	0	0	0	433	
13	0	0	0	0	557	
14	0	0	0	0	288	
15	0	0	0	0	493	
0	0	0	0	0	256	
1	0	0	0	0	292	
2	0	0	0	0	240	
3	0	0	0	0	867	
4	0	0	0	0	449	
5	0	0	0	0	463	
6	0	0	0	0	85	
7	0	0	0	0	1022	
8	0	0	0	0	125	
9	0	0	0	0	1022	
10	0	0	0	0	98	
11	0	0	0	0	674	
12	0	0	0	0	490	
13	0	0	0	0	511	
14	0	0	0	0	474	
15	0	0	0	0	512	
0	0	0	0	0	333	
1	0	0	0	0	1022	
2	0	0	0	0	0	
3	0	0	0	0	928	
4	0	0	0	0	324	
5	0	0	0	0	624	
6	0	0	0	0	462	
7	0	0	0	0	594	
8	0	0	0	0	568	
9	0	0	0	0	498	
10	0	0	0	0	351	
11	0	0	0	0	440	
12	0	0	0	0	324	
13	0	0	0	0	457	
14	0	0	0	0	519	
15	0	0	0	0	872	
0	0	0	0	0	274	
1	0	0	0	0	364	
2	0	0	0	0	546	
3	0	0	0	0	616	
4	0	0	0	0	592	
5	0	0	0	0	387	
6	0	0	0	0	448	
7	0	0	0	0	668	
8	0	0	0	0	486	
9	0	0	0	0	587	
10	0	0	0	0	564	
11	0	0	0	0	214	
12	0	0	0	0	591	
13	0	0	0	0	830	
14	0	0	0	0	484	
15	0	0	0	0	577	
0	0	0	0	0	403	
1	0	0	0	0	361	
2	0	0	0	0	879	
3	0	0	0	0	418	
4	0	0	0	0	478	
5	0	0	0	0	500	
6	0	0	0	0	667	
7	0	0	0	0	391	
8	0	0	0	0	318	
9	0	0	0	0	511	
10	0	0	0	0	300	
11	0	0	0	0	450	
12	0	0	0	0	280	
13	0	0	0	0	599	
14	0	0	0	0	310	
15	0	0	0	0	591	
0	0	0	0	0	483	
1	0	0	0	0	497	
2	0	0	0	0	680	
3	0	0	0	0	305	
4	0	0	0	0	504	
5	0	0	0	0	426	
6	0	0	0	0	922	
7	0	0	0	0	263	
8	0	0	0	0	570	
9	0	0	0	0	569	
10	0	0	0	0	475	
11	0	0	0	0	472	
12	0	0	0	0	225	
13	0	0	0	0	465	
14	0	0	0	0	494	
15	0	0	0	0	324	
0	0	0	0	0	555	
1	0	0	0	0	360	
2	0	0	0	0	487	
3	0	0	0	0	588	
4	0	0	0	0	435	
5	0	0	0	0	400	
6	0	0	0	0	539	
7	0	0	0	0	539	
8	0	0	0	0	510	
9	0	0	0	0	414	
10	0	0	0	0	622	
11	0	0	0	0	518	
12	0	0	0	0	678	
13	0	0	0	0	325	
14	0	0	0	0	607	
15	0	0	0	0	723	
0	0	0	0	0	441	
1	0	0	0	0	493	
2	0	0	0	0	440	
3	0	0	0	0	548	
4	0	0	0	0	611	
5	0	0	0	0	422	
6	0	0	0	0	518	
7	0	0	0	0	597	
8	0	0	0	0	254	
9	0	0	0	0	621	
10	0	0	0	0	335	
11	0	0	0	0	754	
12	0	0	0	0	425	
13	0	0	0	0	417	
14	0	0	0	0	733	
15	0	0	0	0	417	
0	0	0	0	0	599	
1	0	0	0	0	400	
2	0	0	0	0	430	
3	0	0	0	0	729	
4	0	0	0	0	292	
5	0	0	0	0	761	
6	0	0	0	0	491	
7	0	0	0	0	495	
8	0	0	0	0	408	
9	0	0	0	0	360	
10	0	0	0	0	831	
11	0	0	0	0	437	
12	0	0	0	0	465	
13	0	0	0	0	576	
14	0	0	0	0	332	
15	0	0	0	0	726	
0	0	0	0	0	366	
1	0	0	0	0	607	
2	0	0	0	0	467	
3	0	0	0	0	396	
4	0	0	0	0	579	
5	0	0	0	0	527	
6	0	0	0	0	593	
7	0	0	0	0	510	
8	0	0	0	0	379	
9	0	0	0	0	618	
10	0	0	0	0	419	
11	0	0	0	0	502	
12	0	0	0	0	374	
13	0	0	0	0	518	
14	0	0	0	0	553	
15	0	0	0	0	511	
0	0	0	0	0	495	
1	0	0	0	0	493	
2	0	0	0	0	568	
3	0	0	0	0	560	
4	0	0	0	0	475	
5	0	0	0	0	556	
6	0	0	0	0	547	
7	0	0	0	0	422	
8	0	0	0	0	617	
9	0	0	0	0	410	
10	0	0	0	0	530	
11	0	0	0	0	492	
12	0	0	0	0	327	
13	0	0	0	0	668	
14	0	0	0	0	469	
15	0	0	0	0	509	
0	0	0	0	0	481	
1	0	0	0	0	489	
2	0	0	0	0	597	
3	0	0	0	0	488	
4	0	0	0	0	524	
5	0	0	0	0	547	
6	0	0	0	0	498	
7	0	0	0	0	593	
8	0	0	0	0	420	
9	0	0	0	0	570	
10	0	0	0	0	516	
11	0	0	0	0	396	
12	0	0	0	0	640	
13	0	0	0	0	499	
14	0	0	0	0	487	
15	0	0	0	0	514	
0	0	0	0	0	423	
1	0	0	0	0	560	
2	0	0	0	0	612	
3	0	0	0	0	447	
4	0	0	0	0	560	
5	0	0	0	0	388	
6	0	0	0	0	601	
7	0	0	0	0	490	
8	0	0	0	0	451	
9	0	0	0	0	570	
10	0	0	0	0	387	
11	0	0	0	0	693	
12	0	0	0	0	460	
13	0	0	0	0	527	
14	0	0	0	0	523	
15	0	0	0	0	374	
0	0	0	0	0	620	
1	0	0	0	0	545	
2	0	0	0	0	475	
3	0	0	0	0	571	
4	0	0	0	0	423	
5	0	0	0	0	602	
6	0	0	0	0	494	
7	0	0	0	0	504	
8	0	0	0	0	504	
9	0	0	0	0	449	
10	0	0	0	0	613	
11	0	0	0	0	495	
12	0	0	0	0	476	
13	0	0	0	0	611	
14	0	0	0	0	408	
15	0	0	0	0	570	
0	0	0	0	0	497	
1	0	0	0	0	555	
2	0	0	0	0	505	
3	0	0	0	0	463	
4	0	0	0	0	562	
5	0	0	0	0	527	
6	0	0	0	0	524	
7	0	0	0	0	537	
8	0	0	0	0	428	
9	0	0	0	0	555	
10	0	0	0	0	580	
11	0	0	0	0	424	
12	0	0	0	0	532	
13	0	0	0	0	428	
14	0	0	0	0	601	
15	0	0	0	0	489	
0	0	0	0	0	433	
1	0	0	0	0	550	
2	0	0	0	0	413	
3	0	0	0	0	628	
4	0	0	0	0	495	
5	0	0	0	0	496	
6	0	0	0	0	541	
7	0	0	0	0	416	
8	0	0	0	0	638	
9	0	0	0	0	460	
10	0	0	0	0	553	
11	0	0	0	0	524	
12	0	0	0	0	420	
13	0	0	0	0	623	
14	0	0	0	0	459	
15	0	0	0	0	513	
0	0	0	0	0	526	
1	0	0	0	0	409	
2	0	0	0	0	634	
3	0	0	0	0	458	
4	0	0	0	0	483	
5	0	0	0	0	583	
6	0	0	0	0	434	
7	0	0	0	0	555	
8	0	0	0	0	494	
9	0	0	0	0	460	
10	0	0	0	0	574	
11	0	0	0	0	418	
12	0	0	0	0	569	
13	0	0	0	0	490	
14	0	0	0	0	499	
15	0	0	0	0	548	
0	0	0	0	0	436	
1	0	0	0	0	566	
2	0	0	0	0	497	
3	0	0	0	0	504	
4	0	0	0	0	513	
5	0	0	0	0	451	
6	0	0	0	0	603	
7	0	0	0	0	467	
8	0	0	0	0	505	
9	0	0	0	0	537	
10	0	0	0	0	426	
11	0	0	0	0	582	
12	0	0	0	0	503	
13	0	0	0	0	487	
14	0	0	0	0	540	
15	0	0	0	0	432	
0	0	0	0	0	557	
1	0	0	0	0	504	
2	0	0	0	0	509	
3	0	0	0	0	517	
4	0	0	0	0	418	
5	0	0	0	0	564	
6	0	0	0	0	505	
7	0	0	0	0	468	
8	0	0	0	0	536	
9	0	0	0	0	387	
10	0	0	0	0	586	
11	0	0	0	0	479	
12	0	0	0	0	489	
13	0	0	0	0	526	
14	0	0	0	0	436	
15	0	0	0	0	560	
0	0	0	0	0	534	
1	0	0	0	0	467	
2	0	0	0	0	543	
3	0	0	0	0	444	
4	0	0	0	0	560	
5	0	0	0	0	480	
6	0	0	0	0	541	
7	0	0	0	0	538	
8	0	0	0	0	435	
9	0	0	0	0	594	
10	0	0	0	0	491	
11	0	0	0	0	496	
12	0	0	0	0	543	
13	0	0	0	0	470	
14	0	0	0	0	558	
15	0	0	0	0	477	
0	0	0	0	0	489	
1	0	0	0	0	526	
2	0	0	0	0	480	
3	0	0	0	0	556	
4	0	0	0	0	492	
5	0	0	0	0	496	
6	0	0	0	0	524	
7	0	0	0	0	440	
8	0	0	0	0	571	
9	0	0	0	0	511	
10	0	0	0	0	487	
11	0	0	0	0	520	
12	0	0	0	0	436	
13	0	0	0	0	582	
14	0	0	0	0	490	
15	0	0	0	0	507	
0	0	0	0	0	525	
1	0	0	0	0	427	
2	0	0	0	0	566	
3	0	0	0	0	487	
4	0	0	0	0	521	
5	0	0	0	0	525	
6	0	0	0	0	424	
7	0	0	0	0	566	
8	0	0	0	0	495	
9	0	0	0	0	516	
10	0	0	0	0	519	
11	0	0	0	0	431	
12	0	0	0	0	588	
13	0	0	0	0	481	
14	0	0	0	0	503	
15	0	0	0	0	536	
0	0	0	0	0	427	
1	0	0	0	0	575	
2	0	0	0	0	486	
3	0	0	0	0	485	
4	0	0	0	0	532	
5	0	0	0	0	440	
6	0	0	0	0	548	
7	0	0	0	0	526	
8	0	0	0	0	483	
9	0	0	0	0	553	
10	0	0	0	0	429	
11	0	0	0	0	580	
12	0	0	0	0	506	
13	0	0	0	0	505	
14	0	0	0	0	512	
15	0	0	0	0	440	
0	0	0	0	0	567	
1	0	0	0	0	508	
2	0	0	0	0	496	
3	0	0	0	0	502	
4	0	0	0	0	440	
5	0	0	0	0	587	
6	0	0	0	0	479	
7	0	0	0	0	447	
8	0	0	0	0	586	
9	0	0	0	0	408	
10	0	0	0	0	562	
11	0	0	0	0	495	
12	0	0	0	0	494	
13	0	0	0	0	529	
14	0	0	0	0	414	
15	0	0	0	0	574	
0	0	0	0	0	499	
1	0	0	0	0	486	
2	0	0	0	0	526	
3	0	0	0	0	444	
4	0	0	0	0	554	
5	0	0	0	0	502	
6	0	0	0	0	492	
7	0	0	0	0	511	
8	0	0	0	0	412	
9	0	0	0	0	587	
10	0	0	0	0	489	
11	0	0	0	0	482	
12	0	0	0	0	533	
13	0	0	0	0	457	
14	0	0	0	0	546	
15	0	0	0	0	490	
0	0	0	0	0	509	
1	0	0	0	0	531	
2	0	0	0	0	436	
3	0	0	0	0	568	
4	0	0	0	0	502	
5	0	0	0	0	489	
6	0	0	0	0	516	
7	0	0	0	0	449	
8	0	0	0	0	558	
9	0	0	0	0	484	
10	0	0	0	0	504	
11	0	0	0	0	507	
12	0	0	0	0	467	
13	0	0	0	0	534	
14	0	0	0	0	492	
15	0	0	0	0	492	
0	0	0	0	0	531	
1	0	0	0	0	440	
2	0	0	0	0	538	
3	0	0	0	0	506	
4	0	0	0	0	499	
5	0	0	0	0	527	
6	0	0	0	0	431	
7	0	0	0	0	556	
8	0	0	0	0	495	
9	0	0	0	0	511	
10	0	0	0	0	551	
11	0	0	0	0	440	
12	0	0	0	0	554	
13	0	0	0	0	495	
14	0	0	0	0	500	
15	0	0	0	0	512	
0	0	0	0	0	449	
1	0	0	0	0	550	
2	0	0	0	0	500	
3	0	0	0	0	483	
4	0	0	0	0	508	
5	0	0	0	0	461	
6	0	0	0	0	542	
7	0	0	0	0	504	
8	0	0	0	0	477	
9	0	0	0	0	552	
10	0	0	0	0	428	
11	0	0	0	0	561	
12	0	0	0	0	499	
13	0	0	0	0	532	
14	0	0	0	0	509	
15	0	0	0	0	432	
0	0	0	0	0	566	
1	0	0	0	0	483	
2	0	0	0	0	503	
3	0	0	0	0	521	
4	0	0	0	0	464	
5	0	0	0	0	536	
6	0	0	0	0	496	
7	0	0	0	0	493	
8	0	0	0	0	537	
9	0	0	0	0	432	
10	0	0	0	0	560	
11	0	0	0	0	489	
12	0	0	0	0	478	
13	0	0	0	0	548	
14	0	0	0	0	431	
15	0	0	0	0	571	
0	0	0	0	0	505	
1	0	0	0	0	505	
2	0	0	0	0	515	
3	0	0	0	0	437	
4	0	0	0	0	560	
5	0	0	0	0	490	
6	0	0	0	0	496	
7	0	0	0	0	526	
8	0	0	0	0	442	
9	0	0	0	0	576	
10	0	0	0	0	481	
11	0	0	0	0	486	
12	0	0	0	0	535	
13	0	0	0	0	428	
14	0	0	0	0	553	
15	0	0	0	0	492	
0	0	0	0	0	487	
1	0	0	0	0	515	
2	0	0	0	0	441	
3	0	0	0	0	530	
4	0	0	0	0	488	
5	0	0	0	0	500	
6	0	0	0	0	527	
7	0	0	0	0	432	
8	0	0	0	0	560	
9	0	0	0	0	472	
10	0	0	0	0	513	
11	0	0	0	0	504	
12	0	0	0	0	450	
13	0	0	0	0	556	
14	0	0	0	0	476	
15	0	0	0	0	499	
0	0	0	0	0	527	
1	0	0	0	0	431	
2	0	0	0	0	569	
3	0	0	0	0	474	
4	0	0	0	0	506	
5	0	0	0	0	537	
6	0	0	0	0	425	
7	0	0	0	0	556	
8	0	0	0	0	476	
9	0	0	0	0	491	
10	0	0	0	0	537	
11	0	0	0	0	443	
12	0	0	0	0	550	
13	0	0	0	0	471	
14	0	0	0	0	483	
15	0	0	0	0	583	
0	0	0	0	0	430	
1	0	0	0	0	531	
2	0	0	0	0	464	
3	0	0	0	0	524	
4	0	0	0	0	516	
5	0	0	0	0	408	
6	0	0	0	0	562	
7	0	0	0	0	460	
8	0	0	0	0	530	
9	0	0	0	0	597	
10	0	0	0	0	325	
11	0	0	0	0	729	
12	0	0	0	0	406	
13	0	0	0	0	519	
14	0	0	0	0	521	
15	0	0	0	0	400	
0	0	0	0	0	586	
1	0	0	0	0	446	
2	0	0	0	0	528	
3	0	0	0	0	519	
4	0	0	0	0	404	
5	0	0	0	0	575	
6	0	0	0	0	435	
7	0	0	0	0	521	
8	0	0	0	0	516	
9	0	0	0	0	384	
10	0	0	0	0	596	
11	0	0	0	0	447	
12	0	0	0	0	546	
13	0	0	0	0	499	
14	0	0	0	0	415	
15	0	0	0	0	573	
0	0	0	0	0	460	
1	0	0	0	0	526	
2	0	0	0	0	512	
3	0	0	0	0	435	
4	0	0	0	0	584	
5	0	0	0	0	470	
6	0	0	0	0	513	
7	0	0	0	0	504	
8	0	0	0	0	408	
9	0	0	0	0	577	
10	0	0	0	0	437	
11	0	0	0	0	552	
12	0	0	0	0	521	
13	0	0	0	0	411	
14	0	0	0	0	566	
15	0	0	0	0	432	
0	0	0	0	0	528	
1	0	0	0	0	558	
2	0	0	0	0	401	
3	0	0	0	0	534	
4	0	0	0	0	484	
5	0	0	0	0	514	
6	0	0	0	0	546	
7	0	0	0	0	420	
8	0	0	0	0	554	
9	0	0	0	0	462	
10	0	0	0	0	513	
11	0	0	0	0	531	
12	0	0	0	0	410	
13	0	0	0	0	576	
14	0	0	0	0	452	
15	0	0	0	0	519	
0	0	0	0	0	519	
1	0	0	0	0	417	
2	0	0	0	0	585	
3	0	0	0	0	422	
4	0	0	0	0	541	
5	0	0	0	0	523	
6	0	0	0	0	415	
7	0	0	0	0	581	
8	0	0	0	0	456	
9	0	0	0	0	550	
10	0	0	0	0	509	
11	0	0	0	0	366	
12	0	0	0	0	575	
13	0	0	0	0	467	
14	0	0	0	0	521	
15	0	0	0	0	509	
0	0	0	0	0	432	
1	0	0	0	0	560	
2	0	0	0	0	458	
3	0	0	0	0	536	
4	0	0	0	0	525	
5	0	0	0	0	406	
6	0	0	0	0	558	
7	0	0	0	0	455	
8	0	0	0	0	589	
9	0	0	0	0	492	
10	0	0	0	0	405	
11	0	0	0	0	553	
12	0	0	0	0	469	
13	0	0	0	0	550	
14	0	0	0	0	504	
15	0	0	0	0	411	
0	0	0	0	0	551	
1	0	0	0	0	505	
2	0	0	0	0	532	
3	0	0	0	0	506	
4	0	0	0	0	399	
5	0	0	0	0	596	
6	0	0	0	0	456	
7	0	0	0	0	531	
8	0	0	0	0	520	
9	0	0	0	0	404	
10	0	0	0	0	591	
11	0	0	0	0	434	
12	0	0	0	0	530	
13	0	0	0	0	519	
14	0	0	0	0	409	
15	0	0	0	0	620	
0	0	0	0	0	415	
1	0	0	0	0	532	
2	0	0	0	0	608	
3	0	0	0	0	364	
4	0	0	0	0	560	
5	0	0	0	0	446	
6	0	0	0	0	564	
7	0	0	0	0	514	
8	0	0	0	0	393	
9	0	0	0	0	599	
10	0	0	0	0	444	
11	0	0	0	0	538	
12	0	0	0	0	508	
13	0	0	0	0	427	
14	0	0	0	0	545	
15	0	0	0	0	459	
0	0	0	0	0	549	
1	0	0	0	0	493	
2	0	0	0	0	424	
3	0	0	0	0	531	
4	0	0	0	0	443	
5	0	0	0	0	547	
6	0	0	0	0	503	
7	0	0	0	0	405	
8	0	0	0	0	588	
9	0	0	0	0	413	
10	0	0	0	0	538	
11	0	0	0	0	544	
12	0	0	0	0	397	
13	0	0	0	0	543	
14	0	0	0	0	499	
15	0	0	0	0	545	
0	0	0	0	0	507	
1	0	0	0	0	401	
2	0	0	0	0	589	
3	0	0	0	0	419	
4	0	0	0	0	551	
5	0	0	0	0	523	
6	0	0	0	0	407	
7	0	0	0	0	576	
8	0	0	0	0	425	
9	0	0	0	0	580	
10	0	0	0	0	495	
11	0	0	0	0	406	
12	0	0	0	0	593	
13	0	0	0	0	435	
14	0	0	0	0	554	
15	0	0	0	0	508	
0	0	0	0	0	409	
1	0	0	0	0	579	
2	0	0	0	0	421	
3	0	0	0	0	559	
4	0	0	0	0	514	
5	0	0	0	0	405	
6	0	0	0	0	591	
7	0	0	0	0	403	
8	0	0	0	0	563	
9	0	0	0	0	484	
10	0	0	0	0	485	
11	0	0	0	0	548	
12	0	0	0	0	420	
13	0	0	0	0	573	
14	0	0	0	0	505	
15	0	0	0	0	433	
0	0	0	0	0	573	
1	0	0	0	0	432	
2	0	0	0	0	563	
3	0	0	0	0	550	
4	0	0	0	0	405	
5	0	0	0	0	590	
6	0	0	0	0	405	
7	0	0	0	0	573	
8	0	0	0	0	503	
9	0	0	0	0	437	
10	0	0	0	0	567	
11	0	0	0	0	420	
12	0	0	0	0	571	
13	0	0	0	0	501	
14	0	0	0	0	404	
15	0	0	0	0	609	
0	0	0	0	0	404	
1	0	0	0	0	580	
2	0	0	0	0	510	
3	0	0	0	0	414	
4	0	0	0	0	607	
5	0	0	0	0	390	
6	0	0	0	0	586	
7	0	0	0	0	506	
8	0	0	0	0	436	
9	0	0	0	0	577	
10	0	0	0	0	418	
11	0	0	0	0	575	
12	0	0	0	0	521	
13	0	0	0	0	436	
14	0	0	0	0	556	
15	0	0	0	0	428	
0	0	0	0	0	579	
1	0	0	0	0	516	
2	0	0	0	0	411	
3	0	0	0	0	584	
4	0	0	0	0	395	
5	0	0	0	0	565	
6	0	0	0	0	548	
7	0	0	0	0	431	
8	0	0	0	0	551	
9	0	0	0	0	415	
10	0	0	0	0	589	
11	0	0	0	0	488	
12	0	0	0	0	445	
13	0	0	0	0	575	
14	0	0	0	0	414	
15	0	0	0	0	584	
0	0	0	0	0	507	
1	0	0	0	0	464	
2	0	0	0	0	560	
3	0	0	0	0	398	
4	0	0	0	0	636	
5	0	0	0	0	492	
6	0	0	0	0	438	
7	0	0	0	0	563	
8	0	0	0	0	440	
9	0	0	0	0	580	
10	0	0	0	0	505	
11	0	0	0	0	454	
12	0	0	0	0	557	
13	0	0	0	0	406	
14	0	0	0	0	571	
15	0	0	0	0	531	
0	0	0	0	0	430	
1	0	0	0	0	550	
2	0	0	0	0	407	
3	0	0	0	0	629	
4	0	0	0	0	518	
5	0	0	0	0	432	
6	0	0	0	0	548	
7	0	0	0	0	443	
8	0	0	0	0	598	
9	0	0	0	0	492	
10	0	0	0	0	448	
11	0	0	0	0	577	
12	0	0	0	0	399	
13	0	0	0	0	630	
14	0	0	0	0	498	
15	0	0	0	0	448	
0	0	0	0	0	574	
1	0	0	0	0	399	
2	0	0	0	0	617	
3	0	0	0	0	492	
4	0	0	0	0	452	
5	0	0	0	0	555	
6	0	0	0	0	393	
7	0	0	0	0	611	
8	0	0	0	0	513	
9	0	0	0	0	456	
10	0	0	0	0	560	
11	0	0	0	0	406	
12	0	0	0	0	606	
13	0	0	0	0	512	
14	0	0	0	0	480	
15	0	0	0	0	549	
0	0	0	0	0	404	
1	0	0	0	0	626	
2	0	0	0	0	493	
3	0	0	0	0	457	
4	0	0	0	0	548	
5	0	0	0	0	414	
6	0	0	0	0	608	
7	0	0	0	0	495	
8	0	0	0	0	462	
9	0	0	0	0	551	
10	0	0	0	0	403	
11	0	0	0	0	640	
12	0	0	0	0	468	
13	0	0	0	0	478	
14	0	0	0	0	548	
15	0	0	0	0	410	
0	0	0	0	0	618	
1	0	0	0	0	497	
2	0	0	0	0	460	
3	0	0	0	0	558	
4	0	0	0	0	427	
5	0	0	0	0	575	
6	0	0	0	0	505	
7	0	0	0	0	463	
8	0	0	0	0	538	
9	0	0	0	0	447	
10	0	0	0	0	585	
11	0	0	0	0	500	
12	0	0	0	0	473	
13	0	0	0	0	542	
14	0	0	0	0	432	
15	0	0	0	0	589	
0	0	0	0	0	508	
1	0	0	0	0	476	
2	0	0	0	0	535	
3	0	0	0	0	444	
4	0	0	0	0	600	
5	0	0	0	0	492	
6	0	0	0	0	460	
7	0	0	0	0	558	
8	0	0	0	0	422	
9	0	0	0	0	600	
10	0	0	0	0	518	
11	0	0	0	0	478	
12	0	0	0	0	543	
13	0	0	0	0	440	
14	0	0	0	0	604	
15	0	0	0	0	497	
0	0	0	0	0	484	
1	0	0	0	0	555	
2	0	0	0	0	423	
3	0	0	0	0	593	
4	0	0	0	0	487	
5	0	0	0	0	526	
6	0	0	0	0	538	
7	0	0	0	0	416	
8	0	0	0	0	591	
9	0	0	0	0	518	
10	0	0	0	0	479	
11	0	0	0	0	551	
12	0	0	0	0	421	
13	0	0	0	0	591	
14	0	0	0	0	507	
15	0	0	0	0	476	
0	0	0	0	0	577	
1	0	0	0	0	431	
2	0	0	0	0	603	
3	0	0	0	0	502	
4	0	0	0	0	513	
5	0	0	0	0	536	
6	0	0	0	0	436	
7	0	0	0	0	612	
8	0	0	0	0	500	
9	0	0	0	0	495	
10	0	0	0	0	545	
11	0	0	0	0	426	
12	0	0	0	0	607	
13	0	0	0	0	475	
14	0	0	0	0	503	
15	0	0	0	0	536	
0	0	0	0	0	433	
1	0	0	0	0	588	
2	0	0	0	0	519	
3	0	0	0	0	483	
4	0	0	0	0	562	
5	0	0	0	0	428	
6	0	0	0	0	569	
7	0	0	0	0	508	
8	0	0	0	0	482	
9	0	0	0	0	534	
10	0	0	0	0	422	
11	0	0	0	0	591	
12	0	0	0	0	500	
13	0	0	0	0	496	
14	0	0	0	0	540	
15	0	0	0	0	438	
0	0	0	0	0	579	
1	0	0	0	0	489	
2	0	0	0	0	523	
3	0	0	0	0	547	
4	0	0	0	0	412	
5	0	0	0	0	588	
6	0	0	0	0	500	
7	0	0	0	0	521	
8	0	0	0	0	547	
9	0	0	0	0	405	
10	0	0	0	0	595	
11	0	0	0	0	511	
12	0	0	0	0	491	
13	0	0	0	0	536	
14	0	0	0	0	444	
15	0	0	0	0	591	
0	0	0	0	0	492	
1	0	0	0	0	495	
2	0	0	0	0	539	
3	0	0	0	0	425	
4	0	0	0	0	585	
5	0	0	0	0	503	
6	0	0	0	0	514	
7	0	0	0	0	516	
8	0	0	0	0	438	
9	0	0	0	0	593	
10	0	0	0	0	496	
11	0	0	0	0	492	
12	0	0	0	0	525	
13	0	0	0	0	444	
14	0	0	0	0	576	
15	0	0	0	0	493	
0	0	0	0	0	511	
1	0	0	0	0	529	
2	0	0	0	0	422	
3	0	0	0	0	585	
4	0	0	0	0	505	
5	0	0	0	0	477	
6	0	0	0	0	521	
7	0	0	0	0	430	
8	0	0	0	0	572	
9	0	0	0	0	498	
10	0	0	0	0	476	
11	0	0	0	0	534	
12	0	0	0	0	449	
13	0	0	0	0	588	
14	0	0	0	0	498	
15	0	0	0	0	486	
0	0	0	0	0	524	
1	0	0	0	0	441	
2	0	0	0	0	569	
3	0	0	0	0	508	
4	0	0	0	0	514	
5	0	0	0	0	523	
6	0	0	0	0	424	
7	0	0	0	0	572	
8	0	0	0	0	498	
9	0	0	0	0	494	
10	0	0	0	0	519	
11	0	0	0	0	455	
12	0	0	0	0	566	
13	0	0	0	0	507	
14	0	0	0	0	497	
15	0	0	0	0	511	
0	0	0	0	0	435	
1	0	0	0	0	563	
2	0	0	0	0	529	
3	0	0	0	0	490	
4	0	0	0	0	511	
5	0	0	0	0	445	
6	0	0	0	0	564	
7	0	0	0	0	485	
8	0	0	0	0	496	
9	0	0	0	0	504	
10	0	0	0	0	454	
11	0	0	0	0	571	
12	0	0	0	0	476	
13	0	0	0	0	503	
14	0	0	0	0	541	
15	0	0	0	0	416	
0	0	0	0	0	560	
1	0	0	0	0	504	
2	0	0	0	0	501	
3	0	0	0	0	520	
4	0	0	0	0	420	
5	0	0	0	0	583	
6	0	0	0	0	484	
7	0	0	0	0	498	
8	0	0	0	0	526	
9	0	0	0	0	422	
10	0	0	0	0	561	
11	0	0	0	0	488	
12	0	0	0	0	502	
13	0	0	0	0	515	
14	0	0	0	0	435	
15	0	0	0	0	552	
0	0	0	0	0	483	
1	0	0	0	0	497	
2	0	0	0	0	542	
3	0	0	0	0	424	
4	0	0	0	0	561	
5	0	0	0	0	473	
6	0	0	0	0	512	
7	0	0	0	0	532	
8	0	0	0	0	412	
9	0	0	0	0	550	
10	0	0	0	0	475	
11	0	0	0	0	533	
12	0	0	0	0	511	
13	0	0	0	0	445	
14	0	0	0	0	574	
15	0	0	0	0	483	
0	0	0	0	0	500	
1	0	0	0	0	556	
2	0	0	0	0	419	
3	0	0	0	0	547	
4	0	0	0	0	490	
5	0	0	0	0	489	
6	0	0	0	0	531	
7	0	0	0	0	424	
8	0	0	0	0	559	
9	0	0	0	0	471	
10	0	0	0	0	514	
11	0	0	0	0	526	
12	0	0	0	0	422	
13	0	0	0	0	559	
14	0	0	0	0	476	
15	0	0	0	0	519	
0	0	0	0	0	517	
1	0	0	0	0	434	
2	0	0	0	0	560	
3	0	0	0	0	471	
4	0	0	0	0	527	
5	0	0	0	0	507	
6	0	0	0	0	424	
7	0	0	0	0	558	
8	0	0	0	0	471	
9	0	0	0	0	506	
10	0	0	0	0	520	
11	0	0	0	0	441	
12	0	0	0	0	553	
13	0	0	0	0	455	
14	0	0	0	0	510	
15	0	0	0	0	515	
0	0	0	0	0	432	
1	0	0	0	0	548	
2	0	0	0	0	506	
3	0	0	0	0	507	
4	0	0	0	0	521	
5	0	0	0	0	444	
6	0	0	0	0	527	
7	0	0	0	0	471	
8	0	0	0	0	519	
9	0	0	0	0	519	
10	0	0	0	0	410	
11	0	0	0	0	548	
12	0	0	0	0	473	
13	0	0	0	0	525	
14	0	0	0	0	515	
15	0	0	0	0	430	
0	0	0	0	0	547	
1	0	0	0	0	464	
2	0	0	0	0	523	
3	0	0	0	0	505	
4	0	0	0	0	448	
5	0	0	0	0	529	
6	0	0	0	0	468	
7	0	0	0	0	528	
8	0	0	0	0	534	
9	0	0	0	0	428	
10	0	0	0	0	546	
11	0	0	0	0	463	
12	0	0	0	0	521	
13	0	0	0	0	520	
14	0	0	0	0	408	
15	0	0	0	0	557	
0	0	0	0	0	466	
1	0	0	0	0	525	
2	0	0	0	0	501	
3	0	0	0	0	419	
4	0	0	0	0	562	
5	0	0	0	0	467	
6	0	0	0	0	528	
7	0	0	0	0	508	
8	0	0	0	0	425	
9	0	0	0	0	552	
10	0	0	0	0	459	
11	0	0	0	0	542	
12	0	0	0	0	521	
13	0	0	0	0	445	
14	0	0	0	0	549	
15	0	0	0	0	447	
0	0	0	0	0	548	
1	0	0	0	0	508	
2	0	0	0	0	447	
3	0	0	0	0	560	
4	0	0	0	0	456	
5	0	0	0	0	542	
6	0	0	0	0	513	
7	0	0	0	0	438	
8	0	0	0	0	537	
9	0	0	0	0	455	
10	0	0	0	0	543	
11	0	0	0	0	520	
12	0	0	0	0	436	
13	0	0	0	0	551	
14	0	0	0	0	448	
15	0	0	0	0	538	
0	0	0	0	0	512	
1	0	0	0	0	451	
2	0	0	0	0	542	
3	0	0	0	0	456	
4	0	0	0	0	540	
5	0	0	0	0	515	
6	0	0	0	0	460	
7	0	0	0	0	550	
8	0	0	0	0	437	
9	0	0	0	0	556	
10	0	0	0	0	515	
11	0	0	0	0	450	
12	0	0	0	0	535	
13	0	0	0	0	455	
14	0	0	0	0	549	
15	0	0	0	0	517	
0	0	0	0	0	443	
1	0	0	0	0	562	
2	0	0	0	0	451	
3	0	0	0	0	556	
4	0	0	0	0	512	
5	0	0	0	0	416	
6	0	0	0	0	558	
7	0	0	0	0	431	
8	0	0	0	0	560	
9	0	0	0	0	524	
10	0	0	0	0	446	
11	0	0	0	0	538	
12	0	0	0	0	439	
13	0	0	0	0	548	
14	0	0	0	0	519	
15	0	0	0	0	438	
0	0	0	0	0	546	
1	0	0	0	0	436	
2	0	0	0	0	566	
3	0	0	0	0	514	
4	0	0	0	0	454	
5	0	0	0	0	550	
6	0	0	0	0	432	
7	0	0	0	0	591	
8	0	0	0	0	507	
9	0	0	0	0	464	
10	0	0	0	0	545	
11	0	0	0	0	438	
12	0	0	0	0	584	
13	0	0	0	0	510	
14	0	0	0	0	457	
15	0	0	0	0	545	
0	0	0	0	0	459	
1	0	0	0	0	569	
2	0	0	0	0	521	
3	0	0	0	0	463	
4	0	0	0	0	540	
5	0	0	0	0	438	
6	0	0	0	0	583	
7	0	0	0	0	515	
8	0	0	0	0	441	
9	0	0	0	0	556	
10	0	0	0	0	425	
11	0	0	0	0	576	
12	0	0	0	0	504	
13	0	0	0	0	464	
14	0	0	0	0	543	
15	0	0	0	0	437	
0	0	0	0	0	555	
1	0	0	0	0	552	
2	0	0	0	0	452	
3	0	0	0	0	529	
4	0	0	0	0	440	
5	0	0	0	0	589	
6	0	0	0	0	504	
7	0	0	0	0	467	
8	0	0	0	0	560	
9	0	0	0	0	450	
10	0	0	0	0	574	
11	0	0	0	0	522	
12	0	0	0	0	460	
13	0	0	0	0	559	
14	0	0	0	0	435	
15	0	0	0	0	563	
0	0	0	0	0	504	
1	0	0	0	0	508	
2	0	0	0	0	532	
3	0	0	0	0	433	
4	0	0	0	0	580	
5	0	0	0	0	502	
6	0	0	0	0	481	
7	0	0	0	0	553	
8	0	0	0	0	434	
9	0	0	0	0	581	
10	0	0	0	0	495	
11	0	0	0	0	497	
12	0	0	0	0	528	
13	0	0	0	0	438	
14	0	0	0	0	580	
15	0	0	0	0	531	
0	0	0	0	0	494	
1	0	0	0	0	524	
2	0	0	0	0	454	
3	0	0	0	0	573	
4	0	0	0	0	483	
5	0	0	0	0	501	
6	0	0	0	0	534	
7	0	0	0	0	444	
8	0	0	0	0	572	
9	0	0	0	0	509	
10	0	0	0	0	462	
11	0	0	0	0	552	
12	0	0	0	0	435	
13	0	0	0	0	532	
14	0	0	0	0	545	
15	0	0	0	0	473	
0	0	0	0	0	522	
1	0	0	0	0	433	
2	0	0	0	0	606	
3	0	0	0	0	505	
4	0	0	0	0	503	
5	0	0	0	0	529	
6	0	0	0	0	465	
7	0	0	0	0	575	
8	0	0	0	0	503	
9	0	0	0	0	470	
10	0	0	0	0	566	
11	0	0	0	0	426	
12	0	0	0	0	588	
13	0	0	0	0	503	
14	0	0	0	0	501	
15	0	0	0	0	536	
0	0	0	0	0	426	
1	0	0	0	0	588	
2	0	0	0	0	483	
3	0	0	0	0	510	
4	0	0	0	0	535	
5	0	0	0	0	441	
6	0	0	0	0	588	
7	0	0	0	0	460	
8	0	0	0	0	510	
9	0	0	0	0	530	
10	0	0	0	0	428	
11	0	0	0	0	600	
12	0	0	0	0	483	
13	0	0	0	0	506	
14	0	0	0	0	539	
15	0	0	0	0	419	
0	0	0	0	0	560	
1	0	0	0	0	503	
2	0	0	0	0	494	
3	0	0	0	0	551	
4	0	0	0	0	413	
5	0	0	0	0	582	
6	0	0	0	0	492	
7	0	0	0	0	498	
8	0	0	0	0	538	
9	0	0	0	0	437	
10	0	0	0	0	543	
11	0	0	0	0	528	
12	0	0	0	0	484	
13	0	0	0	0	519	
14	0	0	0	0	432	
15	0	0	0	0	579	
0	0	0	0	0	486	
1	0	0	0	0	495	
2	0	0	0	0	540	
3	0	0	0	0	411	
4	0	0	0	0	584	
5	0	0	0	0	506	
6	0	0	0	0	494	
7	0	0	0	0	552	
8	0	0	0	0	412	
9	0	0	0	0	600	
10	0	0	0	0	466	
11	0	0	0	0	500	
12	0	0	0	0	544	
13	0	0	0	0	402	
14	0	0	0	0	600	
15	0	0	0	0	470	
0	0	0	0	0	494	
1	0	0	0	0	519	
2	0	0	0	0	443	
3	0	0	0	0	586	
4	0	0	0	0	466	
5	0	0	0	0	512	
6	0	0	0	0	526	
7	0	0	0	0	411	
8	0	0	0	0	564	
9	0	0	0	0	499	
10	0	0	0	0	502	
11	0	0	0	0	512	
12	0	0	0	0	399	
13	0	0	0	0	593	
14	0	0	0	0	462	
15	0	0	0	0	511	
0	0	0	0	0	539	
1	0	0	0	0	403	
2	0	0	0	0	588	
3	0	0	0	0	451	
4	0	0	0	0	519	
5	0	0	0	0	554	
6	0	0	0	0	381	
7	0	0	0	0	569	
8	0	0	0	0	492	
9	0	0	0	0	509	
10	0	0	0	0	507	
11	0	0	0	0	444	
12	0	0	0	0	558	
13	0	0	0	0	455	
14	0	0	0	0	578	
15	0	0	0	0	436	
0	0	0	0	0	472	
1	0	0	0	0	530	
2	0	0	0	0	448	
3	0	0	0	0	529	
4	0	0	0	0	501	
5	0	0	0	0	449	
6	0	0	0	0	517	
7	0	0	0	0	507	
8	0	0	0	0	445	
9	0	0	0	0	593	
10	0	0	0	0	402	
11	0	0	0	0	572	
12	0	0	0	0	459	
13	0	0	0	0	528	
14	0	0	0	0	543	
15	0	0	0	0	326	
0	0	0	0	0	632	
1	0	0	0	0	423	
2	0	0	0	0	526	
3	0	0	0	0	657	
4	0	0	0	0	201	
5	0	0	0	0	841	
6	0	0	0	0	295	
7	0	0	0	0	562	
8	0	0	0	0	674	
9	0	0	0	0	252	
10	0	0	0	0	661	
11	0	0	0	0	475	
12	0	0	0	0	440	
13	0	0	0	0	563	
14	0	0	0	0	352	
15	0	0	0	0	555	
0	0	0	0	0	512	
1	0	0	0	0	430	
2	0	0	0	0	405	
3	0	0	0	0	625	
4	0	0	0	0	476	
5	0	0	0	0	494	
6	0	0	0	0	526	
7	0	0	0	0	411	
8	0	0	0	0	678	
9	0	0	0	0	195	
10	0	0	0	0	808	
11	0	0	0	0	425	
12	0	0	0	0	445	
13	0	0	0	0	643	
14	0	0	0	0	295	
15	0	0	0	0	638	
0	0	0	0	0	582	
1	0	0	0	0	376	
2	0	0	0	0	572	
3	0	0	0	0	249	
4	0	0	0	0	308	
5	0	0	0	0	132	
6	0	0	0	0	655	
7	0	0	0	0	307	
8	0	0	0	0	679	
9	0	0	0	0	310	
10	0	0	0	0	659	
11	0	0	0	0	341	
12	0	0	0	0	748	
13	0	0	0	0	412	
14	0	0	0	0	633	
15	0	0	0	0	576	
0	0	0	0	0	696	
1	0	0	0	0	337	
2	0	0	0	0	289	
3	0	0	0	0	723	
4	0	0	0	0	491	
5	0	0	0	0	1022	
6	0	0	0	0	349	
7	0	0	0	0	359	
8	0	0	0	0	453	
9	0	0	0	0	301	
10	0	0	0	0	795	
11	0	0	0	0	251	
12	0	0	0	0	244	
13	0	0	0	0	610	
14	0	0	0	0	404	
15	0	0	0	0	560	
0	0	0	0	0	408	
1	0	0	0	0	821	
2	0	0	0	0	347	
3	0	0	0	0	604	
4	0	0	0	0	398	
5	0	0	0	0	0	
6	0	0	0	0	955	
7	0	0	0	0	145	
8	0	0	0	0	893	
9	0	0	0	0	272	
10	0	0	0	0	766	
11	0	0	0	0	353	
12	0	0	0	0	355	
13	0	0	0	0	901	
14	0	0	0	0	482	
15	0	0	0	0	372	
0	0	0	0	0	735	
1	0	0	0	0	117	
2	0	0	0	0	488	
3	0	0	0	0	581	
4	0	0	0	0	361	
5	0	0	0	0	655	
6	0	0	0	0	721	
7	0	0	0	0	171	
8	0	0	0	0	965	
9	0	0	0	0	347	
10	0	0	0	0	678	
11	0	0	0	0	353	
12	0	0	0	0	1022	
13	0	0	0	0	2	
14	0	0	0	0	551	
15	0	0	0	0	349	
0	0	0	0	0	366	
1	0	0	0	0	35	
2	0	0	0	0	500	
3	0	0	0	0	795	
4	0	0	0	0	192	
5	0	0	0	0	746	
6	0	0	0	0	192	
7	0	0	0	0	814	
8	0	0	0	0	0	
9	0	0	0	0	1022	
10	0	0	0	0	123	
11	0	0	0	0	863	
12	0	0	0	0	289	
13	0	0	0	0	291	
14	0	0	0	0	1022	
15	0	0	0	0	326	
0	0	0	0	0	440	
1	0	0	0	0	1022	
2	0	0	0	0	225	
3	0	0	0	0	1016	
4	0	0	0	0	247	
5	0	0	0	0	1022	
6	0	0	0	0	293	
7	0	0	0	0	244	
8	0	0	0	0	848	
9	0	0	0	0	126	
10	0	0	0	0	485	
11	0	0	0	0	444	
12	0	0	0	0	312	
13	0	0	0	0	604	
14	0	0	0	0	965	
15	0	0	0	0	282	
0	0	0	0	0	564	
1	0	0	0	0	0	
2	0	0	0	0	916	
3	0	0	0	0	209	
4	0	0	0	0	1022	
5	0	0	0	0	319	
6	0	0	0	0	830	
7	0	0	0	0	324	
8	0	0	0	0	387	
9	0	0	0	0	218	
10	0	0	0	0	129	
11	0	0	0	0	1022	
12	0	0	0	0	286	
13	0	0	0	0	306	
14	0	0	0	0	525	
15	0	0	0	0	452	
0	0	0	0	0	135	
1	0	0	0	0	962	
2	0	0	0	0	193	
3	0	0	0	0	1022	
4	0	0	0	0	238	
5	0	0	0	0	0	
6	0	0	0	0	961	
7	0	0	0	0	265	
8	0	0	0	0	667	
9	0	0	0	0	691	
10	0	0	0	0	128	
11	0	0	0	0	748	
12	0	0	0	0	289	
13	0	0	0	0	1018	
14	0	0	0	0	153	
15	0	0	0	0	1022	
0	0	0	0	0	339	
1	0	0	0	0	212	
2	0	0	0	0	766	
3	0	0	0	0	275	
4	0	0	0	0	677	
5	0	0	0	0	307	
6	0	0	0	0	860	
7	0	0	0	0	156	
8	0	0	0	0	432	
9	0	0	0	0	740	
10	0	0	0	0	371	
11	0	0	0	0	387	
12	0	0	0	0	515	
13	0	0	0	0	447	
14	0	0	0	0	538	
15	0	0	0	0	487	
0	0	0	0	0	259	
1	0	0	0	0	670	
2	0	0	0	0	366	
3	0	0	0	0	438	
4	0	0	0	0	436	
5	0	0	0	0	463	
6	0	0	0	0	518	
7	0	0	0	0	667	
8	0	0	0	0	394	
9	0	0	0	0	746	
10	0	0	0	0	600	
11	0	0	0	0	502	
12	0	0	0	0	505	
13	0	0	0	0	507	
14	0	0	0	0	556	
15	0	0	0	0	537	
0	0	0	0	0	601	
1	0	0	0	0	556	
2	0	0	0	0	431	
3	0	0	0	0	505	
4	0	0	0	0	365	
5	0	0	0	0	586	
6	0	0	0	0	536	
7	0	0	0	0	475	
8	0	0	0	0	508	
9	0	0	0	0	457	
10	0	0	0	0	574	
11	0	0	0	0	451	
12	0	0	0	0	529	
13	0	0	0	0	499	
14	0	0	0	0	449	
15	0	0	0	0	552	
0	0	0	0	0	531	
1	0	0	0	0	445	
2	0	0	0	0	514	
3	0	0	0	0	407	
4	0	0	0	0	593	
5	0	0	0	0	569	
6	0	0	0	0	491	
7	0	0	0	0	537	
8	0	0	0	0	394	
9	0	0	0	0	613	
10	0	0	0	0	460	
11	0	0	0	0	536	
12	0	0	0	0	515	
13	0	0	0	0	383	
14	0	0	0	0	679	
15	0	0	0	0	477	
0	0	0	0	0	437	
1	0	0	0	0	609	
2	0	0	0	0	375	
3	0	0	0	0	664	
4	0	0	0	0	461	
5	0	0	0	0	535	
6	0	0	0	0	561	
7	0	0	0	0	382	
8	0	0	0	0	628	
9	0	0	0	0	511	
10	0	0	0	0	428	
11	0	0	0	0	578	
12	0	0	0	0	377	
13	0	0	0	0	668	
14	0	0	0	0	470	
15	0	0	0	0	440	
0	0	0	0	0	637	
1	0	0	0	0	376	
2	0	0	0	0	588	
3	0	0	0	0	537	
4	0	0	0	0	426	
5	0	0	0	0	619	
6	0	0	0	0	368	
7	0	0	0	0	570	
8	0	0	0	0	513	
9	0	0	0	0	515	
10	0	0	0	0	537	
11	0	0	0	0	394	
12	0	0	0	0	630	
13	0	0	0	0	451	
14	0	0	0	0	464	
15	0	0	0	0	620	
0	0	0	0	0	403	
1	0	0	0	0	610	
2	0	0	0	0	475	
3	0	0	0	0	476	
4	0	0	0	0	547	
5	0	0	0	0	395	
6	0	0	0	0	604	
7	0	0	0	0	493	
8	0	0	0	0	446	
9	0	0	0	0	565	
10	0	0	0	0	368	
11	0	0	0	0	661	
12	0	0	0	0	476	
13	0	0	0	0	469	
14	0	0	0	0	568	
15	0	0	0	0	414	
0	0	0	0	0	614	
1	0	0	0	0	492	
2	0	0	0	0	454	
3	0	0	0	0	582	
4	0	0	0	0	402	
5	0	0	0	0	608	
6	0	0	0	0	497	
7	0	0	0	0	478	
8	0	0	0	0	560	
9	0	0	0	0	412	
10	0	0	0	0	612	
11	0	0	0	0	489	
12	0	0	0	0	468	
13	0	0	0	0	568	
14	0	0	0	0	388	
15	0	0	0	0	608	
0	0	0	0	0	487	
1	0	0	0	0	461	
2	0	0	0	0	551	
3	0	0	0	0	414	
4	0	0	0	0	620	
5	0	0	0	0	485	
6	0	0	0	0	501	
7	0	0	0	0	540	
8	0	0	0	0	412	
9	0	0	0	0	599	
10	0	0	0	0	526	
11	0	0	0	0	459	
12	0	0	0	0	552	
13	0	0	0	0	422	
14	0	0	0	0	578	
15	0	0	0	0	481	
0	0	0	0	0	497	
1	0	0	0	0	537	
2	0	0	0	0	406	
3	0	0	0	0	618	
4	0	0	0	0	496	
5	0	0	0	0	466	
6	0	0	0	0	540	
7	0	0	0	0	402	
8	0	0	0	0	619	
9	0	0	0	0	477	
10	0	0	0	0	461	
11	0	0	0	0	552	
12	0	0	0	0	399	
13	0	0	0	0	632	
14	0	0	0	0	491	
15	0	0	0	0	461	
0	0	0	0	0	558	
1	0	0	0	0	413	
2	0	0	0	0	597	
3	0	0	0	0	497	
4	0	0	0	0	455	
5	0	0	0	0	588	
6	0	0	0	0	329	
7	0	0	0	0	683	
8	0	0	0	0	495	
9	0	0	0	0	450	
10	0	0	0	0	558	
11	0	0	0	0	408	
12	0	0	0	0	605	
13	0	0	0	0	488	
14	0	0	0	0	475	
15	0	0	0	0	551	
0	0	0	0	0	398	
1	0	0	0	0	590	
2	0	0	0	0	519	
3	0	0	0	0	487	
4	0	0	0	0	549	
5	0	0	0	0	401	
6	0	0	0	0	596	
7	0	0	0	0	530	
8	0	0	0	0	447	
9	0	0	0	0	530	
10	0	0	0	0	439	
11	0	0	0	0	585	
12	0	0	0	0	508	
13	0	0	0	0	448	
14	0	0	0	0	545	
15	0	0	0	0	429	
0	0	0	0	0	583	
1	0	0	0	0	497	
2	0	0	0	0	475	
3	0	0	0	0	543	
4	0	0	0	0	412	
5	0	0	0	0	588	
6	0	0	0	0	518	
7	0	0	0	0	517	
8	0	0	0	0	515	
9	0	0	0	0	415	
10	0	0	0	0	610	
11	0	0	0	0	497	
12	0	0	0	0	444	
13	0	0	0	0	579	
14	0	0	0	0	400	
15	0	0	0	0	593	
0	0	0	0	0	523	
1	0	0	0	0	456	
2	0	0	0	0	531	
3	0	0	0	0	441	
4	0	0	0	0	568	
5	0	0	0	0	518	
6	0	0	0	0	464	
7	0	0	0	0	554	
8	0	0	0	0	407	
9	0	0	0	0	594	
10	0	0	0	0	465	
11	0	0	0	0	480	
12	0	0	0	0	549	
13	0	0	0	0	419	
14	0	0	0	0	587	
15	0	0	0	0	517	
0	0	0	0	0	454	
1	0	0	0	0	562	
2	0	0	0	0	415	
3	0	0	0	0	563	
4	0	0	0	0	530	
5	0	0	0	0	476	
6	0	0	0	0	536	
7	0	0	0	0	425	
8	0	0	0	0	587	
9	0	0	0	0	502	
10	0	0	0	0	445	
11	0	0	0	0	575	
12	0	0	0	0	430	
13	0	0	0	0	585	
14	0	0	0	0	525	
15	0	0	0	0	435	
0	0	0	0	0	566	
1	0	0	0	0	417	
2	0	0	0	0	613	
3	0	0	0	0	497	
4	0	0	0	0	480	
5	0	0	0	0	547	
6	0	0	0	0	414	
7	0	0	0	0	584	
8	0	0	0	0	538	
9	0	0	0	0	457	
10	0	0	0	0	578	
11	0	0	0	0	412	
12	0	0	0	0	571	
13	0	0	0	0	510	
14	0	0	0	0	455	
15	0	0	0	0	569	
0	0	0	0	0	439	
1	0	0	0	0	579	
2	0	0	0	0	503	
3	0	0	0	0	459	
4	0	0	0	0	554	
5	0	0	0	0	422	
6	0	0	0	0	591	
7	0	0	0	0	507	
8	0	0	0	0	456	
9	0	0	0	0	554	
10	0	0	0	0	420	
11	0	0	0	0	583	
12	0	0	0	0	502	
13	0	0	0	0	439	
14	0	0	0	0	561	
15	0	0	0	0	421	
0	0	0	0	0	578	
1	0	0	0	0	508	
2	0	0	0	0	457	
3	0	0	0	0	547	
4	0	0	0	0	433	
5	0	0	0	0	576	
6	0	0	0	0	496	
7	0	0	0	0	465	
8	0	0	0	0	572	
9	0	0	0	0	503	
10	0	0	0	0	551	
11	0	0	0	0	497	
12	0	0	0	0	499	
13	0	0	0	0	473	
14	0	0	0	0	493	
15	0	0	0	0	468	
0	0	0	0	0	363	
1	0	0	0	0	551	
2	0	0	0	0	550	
3	0	0	0	0	328	
4	0	0	0	0	827	
5	0	0	0	0	418	
6	0	0	0	0	383	
7	0	0	0	0	581	
8	0	0	0	0	396	
9	0	0	0	0	432	
10	0	0	0	0	592	
11	0	0	0	0	472	
12	0	0	0	0	333	
13	0	0	0	0	620	
14	0	0	0	0	622	
15	0	0	0	0	363	
0	0	0	0	0	534	
1	0	0	0	0	454	
2	0	0	0	0	427	
3	0	0	0	0	716	
4	0	0	0	0	369	
5	0	0	0	0	526	
6	0	0	0	0	499	
7	0	0	0	0	595	
8	0	0	0	0	625	
9	0	0	0	0	379	
10	0	0	0	0	734	
11	0	0	0	0	399	
12	0	0	0	0	401	
13	0	0	0	0	733	
14	0	0	0	0	312	
15	0	0	0	0	485	
0	0	0	0	0	527	
1	0	0	0	0	517	
2	0	0	0	0	510	
3	0	0	0	0	445	
4	0	0	0	0	316	
5	0	0	0	0	844	
6	0	0	0	0	306	
7	0	0	0	0	591	
8	0	0	0	0	619	
9	0	0	0	0	436	
10	0	0	0	0	1016	
11	0	0	0	0	175	
12	0	0	0	0	757	
13	0	0	0	0	448	
14	0	0	0	0	399	
15	0	0	0	0	708	
0	0	0	0	0	479	
1	0	0	0	0	356	
2	0	0	0	0	564	
3	0	0	0	0	145	
4	0	0	0	0	809	
5	0	0	0	0	59	
6	0	0	0	0	1022	
7	0	0	0	0	275	
8	0	0	0	0	411	
9	0	0	0	0	653	
10	0	0	0	0	106	
11	0	0	0	0	827	
12	0	0	0	0	616	
13	0	0	0	0	819	
14	0	0	0	0	568	
15	0	0	0	0	186	
0	0	0	0	0	1022	
1	0	0	0	0	306	
2	0	0	0	0	636	
3	0	0	0	0	625	
4	0	0	0	0	142	
5	0	0	0	0	636	
6	0	0	0	0	556	
7	0	0	0	0	170	
8	0	0	0	0	956	
9	0	0	0	0	232	
10	0	0	0	0	783	
11	0	0	0	0	206	
12	0	0	0	0	928	
13	0	0	0	0	82	
14	0	0	0	0	608	
15	0	0	0	0	638	
0	0	0	0	0	199	
1	0	0	0	0	1022	
2	0	0	0	0	0	
3	0	0	0	0	802	
4	0	0	0	0	0	
5	0	0	0	0	1022	
6	0	0	0	0	127	
7	0	0	0	0	883	
8	0	0	0	0	0	
9	0	0	0	0	545	
10	0	0	0	0	661	
11	0	0	0	0	318	
12	0	0	0	0	406	
13	0	0	0	0	934	
14	0	0	0	0	53	
15	0	0	0	0	1022	
0	0	0	0	0	137	
1	0	0	0	0	942	
2	0	0	0	0	295	
3	0	0	0	0	91	
4	0	0	0	0	773	
5	0	0	0	0	183	
6	0	0	0	0	716	
7	0	0	0	0	13	
8	0	0	0	0	1022	
9	0	0	0	0	0	
10	0	0	0	0	777	
11	0	0	0	0	302	
12	0	0	0	0	813	
13	0	0	0	0	448	
14	0	0	0	0	388	
15	0	0	0	0	590	
0	0	0	0	0	353	
1	0	0	0	0	0	
2	0	0	0	0	618	
3	0	0	0	0	0	
4	0	0	0	0	559	
5	0	0	0	0	0	
6	0	0	0	0	539	
7	0	0	0	0	394	
8	0	0	0	0	260	
9	0	0	0	0	1022	
10	0	0	0	0	165	
11	0	0	0	0	1016	
12	0	0	0	0	369	
13	0	0	0	0	1022	
14	0	0	0	0	0	
15	0	0	0	0	741	
0	0	0	0	0	0	
1	0	0	0	0	946	
2	0	0	0	0	191	
3	0	0	0	0	1022	
4	0	0	0	0	0	
5	0	0	0	0	667	
6	0	0	0	0	250	
7	0	0	0	0	929	
8	0	0	0	0	120	
9	0	0	0	0	516	
10	0	0	0	0	0	
11	0	0	0	0	962	
12	0	0	0	0	689	
13	0	0	0	0	155	
14	0	0	0	0	277	
15	0	0	0	0	421	
0	0	0	0	0	615	
1	0	0	0	0	435	
2	0	0	0	0	552	
3	0	0	0	0	561	
4	0	0	0	0	480	
5	0	0	0	0	604	
6	0	0	0	0	704	
7	0	0	0	0	180	
8	0	0	0	0	849	
9	0	0	0	0	582	
10	0	0	0	0	496	
11	0	0	0	0	645	
12	0	0	0	0	446	
13	0	0	0	0	493	
14	0	0	0	0	499	
15	0	0	0	0	541	
0	0	0	0	0	580	
1	0	0	0	0	343	
2	0	0	0	0	706	
3	0	0	0	0	384	
4	0	0	0	0	551	
5	0	0	0	0	380	
6	0	0	0	0	551	
7	0	0	0	0	560	
8	0	0	0	0	324	
9	0	0	0	0	661	
10	0	0	0	0	481	
11	0	0	0	0	520	
12	0	0	0	0	611	
13	0	0	0	0	451	
14	0	0	0	0	500	
15	0	0	0	0	433	
0	0	0	0	0	468	
1	0	0	0	0	589	
2	0	0	0	0	420	
3	0	0	0	0	506	
4	0	0	0	0	489	
5	0	0	0	0	506	
6	0	0	0	0	530	
7	0	0	0	0	402	
8	0	0	0	0	463	
9	0	0	0	0	543	
10	0	0	0	0	384	
11	0	0	0	0	593	
12	0	0	0	0	463	
13	0	0	0	0	534	
14	0	0	0	0	595	
15	0	0	0	0	353	
0	0	0	0	0	482	
1	0	0	0	0	494	
2	0	0	0	0	522	
3	0	0	0	0	479	
4	0	0	0	0	438	
5	0	0	0	0	582	
6	0	0	0	0	397	
7	0	0	0	0	531	
8	0	0	0	0	473	
9	0	0	0	0	457	
10	0	0	0	0	555	
11	0	0	0	0	461	
12	0	0	0	0	510	
13	0	0	0	0	468	
14	0	0	0	0	457	
15	0	0	0	0	534	
0	0	0	0	0	457	
1	0	0	0	0	514	
2	0	0	0	0	502	
3	0	0	0	0	418	
4	0	0	0	0	574	
5	0	0	0	0	504	
6	0	0	0	0	491	
7	0	0	0	0	557	
8	0	0	0	0	402	
9	0	0	0	0	543	
10	0	0	0	0	475	
11	0	0	0	0	553	
12	0	0	0	0	504	
13	0	0	0	0	431	
14	0	0	0	0	536	
15	0	0	0	0	440	
0	0	0	0	0	532	
1	0	0	0	0	519	
2	0	0	0	0	362	
3	0	0	0	0	632	
4	0	0	0	0	430	
5	0	0	0	0	581	
6	0	0	0	0	463	
7	0	0	0	0	466	
8	0	0	0	0	588	
9	0	0	0	0	457	
10	0	0	0	0	536	
11	0	0	0	0	563	
12	0	0	0	0	397	
13	0	0	0	0	533	
14	0	0	0	0	459	
15	0	0	0	0	530	
0	0	0	0	0	509	
1	0	0	0	0	384	
2	0	0	0	0	623	
3	0	0	0	0	393	
4	0	0	0	0	597	
5	0	0	0	0	493	
6	0	0	0	0	400	
7	0	0	0	0	557	
8	0	0	0	0	467	
9	0	0	0	0	531	
10	0	0	0	0	512	
11	0	0	0	0	413	
12	0	0	0	0	563	
13	0	0	0	0	469	
14	0	0	0	0	510	
15	0	0	0	0	513	
0	0	0	0	0	465	
1	0	0	0	0	548	
2	0	0	0	0	446	
3	0	0	0	0	536	
4	0	0	0	0	449	
5	0	0	0	0	547	
6	0	0	0	0	513	
7	0	0	0	0	462	
8	0	0	0	0	514	
9	0	0	0	0	504	
10	0	0	0	0	445	
11	0	0	0	0	584	
12	0	0	0	0	474	
13	0	0	0	0	510	
14	0	0	0	0	527	
15	0	0	0	0	423	
0	0	0	0	0	628	
1	0	0	0	0	446	
2	0	0	0	0	510	
3	0	0	0	0	508	
4	0	0	0	0	419	
5	0	0	0	0	570	
6	0	0	0	0	447	
7	0	0	0	0	496	
8	0	0	0	0	580	
9	0	0	0	0	417	
10	0	0	0	0	539	
11	0	0	0	0	463	
12	0	0	0	0	508	
13	0	0	0	0	528	
14	0	0	0	0	476	
15	0	0	0	0	582	
0	0	0	0	0	446	
1	0	0	0	0	521	
2	0	0	0	0	543	
3	0	0	0	0	400	
4	0	0	0	0	569	
5	0	0	0	0	444	
6	0	0	0	0	517	
7	0	0	0	0	517	
8	0	0	0	0	415	
9	0	0	0	0	568	
10	0	0	0	0	528	
11	0	0	0	0	494	
12	0	0	0	0	528	
13	0	0	0	0	411	
14	0	0	0	0	563	
15	0	0	0	0	489	
0	0	0	0	0	510	
1	0	0	0	0	538	
2	0	0	0	0	425	
3	0	0	0	0	537	
4	0	0	0	0	520	
5	0	0	0	0	495	
6	0	0	0	0	533	
7	0	0	0	0	425	
8	0	0	0	0	591	
9	0	0	0	0	546	
10	0	0	0	0	465	
11	0	0	0	0	526	
12	0	0	0	0	468	
13	0	0	0	0	568	
14	0	0	0	0	420	
15	0	0	0	0	588	
0	0	0	0	0	529	
1	0	0	0	0	347	
2	0	0	0	0	636	
3	0	0	0	0	412	
4	0	0	0	0	537	
5	0	0	0	0	486	
6	0	0	0	0	455	
7	0	0	0	0	581	
8	0	0	0	0	394	
9	0	0	0	0	515	
10	0	0	0	0	636	
11	0	0	0	0	360	
12	0	0	0	0	627	
13	0	0	0	0	462	
14	0	0	0	0	497	
15	0	0	0	0	513	
0	0	0	0	0	541	
1	0	0	0	0	582	
2	0	0	0	0	379	
3	0	0	0	0	660	
4	0	0	0	0	490	
5	0	0	0	0	422	
6	0	0	0	0	738	
7	0	0	0	0	386	
8	0	0	0	0	368	
9	0	0	0	0	695	
10	0	0	0	0	341	
11	0	0	0	0	597	
12	0	0	0	0	441	
13	0	0	0	0	486	
14	0	0	0	0	761	
15	0	0	0	0	235	
0	0	0	0	0	671	
1	0	0	0	0	504	
2	0	0	0	0	567	
3	0	0	0	0	183	
4	0	0	0	0	654	
5	0	0	0	0	519	
6	0	0	0	0	472	
7	0	0	0	0	545	
8	0	0	0	0	457	
9	0	0	0	0	599	
10	0	0	0	0	680	
11	0	0	0	0	336	
12	0	0	0	0	460	
13	0	0	0	0	484	
14	0	0	0	0	930	
15	0	0	0	0	335	
0	0	0	0	0	603	
1	0	0	0	0	411	
2	0	0	0	0	512	
3	0	0	0	0	466	
4	0	0	0	0	609	
5	0	0	0	0	747	
6	0	0	0	0	268	
7	0	0	0	0	860	
8	0	0	0	0	470	
9	0	0	0	0	617	
10	0	0	0	0	511	
11	0	0	0	0	329	
12	0	0	0	0	528	
13	0	0	0	0	252	
14	0	0	0	0	803	
15	0	0	0	0	178	
0	0	0	0	0	519	
1	0	0	0	0	503	
2	0	0	0	0	234	
3	0	0	0	0	721	
4	0	0	0	0	40	
5	0	0	0	0	1022	
6	0	0	0	0	265	
7	0	0	0	0	724	
8	0	0	0	0	375	
9	0	0	0	0	727	
10	0	0	0	0	403	
11	0	0	0	0	696	
12	0	0	0	0	63	
13	0	0	0	0	493	
14	0	0	0	0	397	
15	0	0	0	0	419	
0	0	0	0	0	490	
1	0	0	0	0	310	
2	0	0	0	0	1022	
3	0	0	0	0	226	
4	0	0	0	0	287	
5	0	0	0	0	871	
6	0	0	0	0	0	
7	0	0	0	0	1022	
8	0	0	0	0	284	
9	0	0	0	0	703	
10	0	0	0	0	705	
11	0	0	0	0	606	
12	0	0	0	0	395	
13	0	0	0	0	543	
14	0	0	0	0	423	
15	0	0	0	0	422	
0	0	0	0	0	0	
1	0	0	0	0	738	
2	0	0	0	0	249	
3	0	0	0	0	1022	
4	0	0	0	0	293	
5	0	0	0	0	1022	
6	0	0	0	0	452	
7	0	0	0	0	281	
8	0	0	0	0	962	
9	0	0	0	0	300	
10	0	0	0	0	1022	
11	0	0	0	0	96	
12	0	0	0	0	1022	
13	0	0	0	0	163	
14	0	0	0	0	527	
15	0	0	0	0	883	
0	0	0	0	0	159	
1	0	0	0	0	267	
2	0	0	0	0	1022	
3	0	0	0	0	642	
4	0	0	0	0	315	
5	0	0	0	0	263	
6	0	0	0	0	1022	
7	0	0	0	0	380	
8	0	0	0	0	551	
9	0	0	0	0	547	
10	0	0	0	0	0	
11	0	0	0	0	566	
12	0	0	0	0	288	
13	0	0	0	0	558	
14	0	0	0	0	207	
15	0	0	0	0	566	
0	0	0	0	0	322	
1	0	0	0	0	655	
2	0	0	0	0	550	
3	0	0	0	0	0	
4	0	0	0	0	828	
5	0	0	0	0	326	
6	0	0	0	0	399	
7	0	0	0	0	833	
8	0	0	0	0	418	
9	0	0	0	0	399	
10	0	0	0	0	464	
11	0	0	0	0	276	
12	0	0	0	0	256	
13	0	0	0	0	342	
14	0	0	0	0	688	
15	0	0	0	0	0	
0	0	0	0	0	635	
1	0	0	0	0	900	
2	0	0	0	0	70	
3	0	0	0	0	824	
4	0	0	0	0	0	
5	0	0	0	0	364	
6	0	0	0	0	823	
7	0	0	0	0	428	
8	0	0	0	0	824	
9	0	0	0	0	428	
10	0	0	0	0	528	
11	0	0	0	0	0	
12	0	0	0	0	297	
13	0	0	0	0	883	
14	0	0	0	0	231	
15	0	0	0	0	408	
0	0	0	0	0	732	
1	0	0	0	0	398	
2	0	0	0	0	491	
3	0	0	0	0	593	
4	0	0	0	0	764	
5	0	0	0	0	349	
6	0	0	0	0	811	
7	0	0	0	0	735	
8	0	0	0	0	140	
9	0	0	0	0	1022	
10	0	0	0	0	206	
11	0	0	0	0	757	
12	0	0	0	0	563	
13	0	0	0	0	204	
14	0	0	0	0	144	
15	0	0	0	0	635	
0	0	0	0	0	319	
1	0	0	0	0	398	
2	0	0	0	0	0	
3	0	0	0	0	108	
4	0	0	0	0	705	
5	0	0	0	0	919	
6	0	0	0	0	55	
7	0	0	0	0	621	
8	0	0	0	0	78	
9	0	0	0	0	1022	
10	0	0	0	0	430	
11	0	0	0	0	611	
12	0	0	0	0	520	
13	0	0	0	0	86	
14	0	0	0	0	799	
15	0	0	0	0	664	
0	0	0	0	0	146	
1	0	0	0	0	887	
2	0	0	0	0	408	
3	0	0	0	0	367	
4	0	0	0	0	571	
5	0	0	0	0	567	
6	0	0	0	0	767	
7	0	0	0	0	191	
8	0	0	0	0	791	
9	0	0	0	0	431	
10	0	0	0	0	497	
11	0	0	0	0	144	
12	0	0	0	0	450	
13	0	0	0	0	602	
14	0	0	0	0	373	
15	0	0	0	0	587	
0	0	0	0	0	551	
1	0	0	0	0	557	
2	0	0	0	0	440	
3	0	0	0	0	639	
4	0	0	0	0	668	
5	0	0	0	0	384	
6	0	0	0	0	313	
7	0	0	0	0	465	
8	0	0	0	0	524	
9	0	0	0	0	836	
10	0	0	0	0	368	
11	0	0	0	0	413	
12	0	0	0	0	592	
13	0	0	0	0	407	
14	0	0	0	0	744	
15	0	0	0	0	507	
0	0	0	0	0	455	
1	0	0	0	0	558	
2	0	0	0	0	387	
3	0	0	0	0	586	
4	0	0	0	0	498	
5	0	0	0	0	420	
6	0	0	0	0	692	
7	0	0	0	0	360	
8	0	0	0	0	572	
9	0	0	0	0	602	
10	0	0	0	0	398	
11	0	0	0	0	580	
12	0	0	0	0	400	
13	0	0	0	0	552	
14	0	0	0	0	503	
15	0	0	0	0	466	
0	0	0	0	0	588	
1	0	0	0	0	384	
2	0	0	0	0	612	
3	0	0	0	0	608	
4	0	0	0	0	391	
5	0	0	0	0	587	
6	0	0	0	0	468	
7	0	0	0	0	624	
8	0	0	0	0	459	
9	0	0	0	0	516	
10	0	0	0	0	547	
11	0	0	0	0	318	
12	0	0	0	0	674	
13	0	0	0	0	447	
14	0	0	0	0	476	
15	0	0	0	0	559	
0	0	0	0	0	396	
1	0	0	0	0	633	
2	0	0	0	0	476	
3	0	0	0	0	421	
4	0	0	0	0	591	
5	0	0	0	0	356	
6	0	0	0	0	595	
7	0	0	0	0	536	
8	0	0	0	0	480	
9	0	0	0	0	564	
10	0	0	0	0	436	
11	0	0	0	0	558	
12	0	0	0	0	513	
13	0	0	0	0	503	
14	0	0	0	0	542	
15	0	0	0	0	430	
0	0	0	0	0	593	
1	0	0	0	0	513	
2	0	0	0	0	432	
3	0	0	0	0	528	
4	0	0	0	0	440	
5	0	0	0	0	583	
6	0	0	0	0	501	
7	0	0	0	0	424	
8	0	0	0	0	627	
9	0	0	0	0	386	
10	0	0	0	0	639	
11	0	0	0	0	496	
12	0	0	0	0	461	
13	0	0	0	0	561	
14	0	0	0	0	426	
15	0	0	0	0	501	
0	0	0	0	0	539	
1	0	0	0	0	444	
2	0	0	0	0	618	
3	0	0	0	0	393	
4	0	0	0	0	553	
5	0	0	0	0	510	
6	0	0	0	0	448	
7	0	0	0	0	537	
8	0	0	0	0	462	
9	0	0	0	0	577	
10	0	0	0	0	471	
11	0	0	0	0	417	
12	0	0	0	0	591	
13	0	0	0	0	414	
14	0	0	0	0	558	
15	0	0	0	0	510	
0	0	0	0	0	428	
1	0	0	0	0	537	
2	0	0	0	0	440	
3	0	0	0	0	599	
4	0	0	0	0	471	
5	0	0	0	0	443	
6	0	0	0	0	574	
7	0	0	0	0	414	
8	0	0	0	0	556	
9	0	0	0	0	518	
10	0	0	0	0	420	
11	0	0	0	0	549	
12	0	0	0	0	459	
13	0	0	0	0	530	
14	0	0	0	0	559	
15	0	0	0	0	383	
0	0	0	0	0	581	
1	0	0	0	0	450	
2	0	0	0	0	523	
3	0	0	0	0	520	
4	0	0	0	0	408	
5	0	0	0	0	615	
6	0	0	0	0	429	
7	0	0	0	0	519	
8	0	0	0	0	525	
9	0	0	0	0	440	
10	0	0	0	0	547	
11	0	0	0	0	465	
12	0	0	0	0	531	
13	0	0	0	0	496	
14	0	0	0	0	503	
15	0	0	0	0	503	
0	0	0	0	0	435	
1	0	0	0	0	553	
2	0	0	0	0	512	
3	0	0	0	0	434	
4	0	0	0	0	535	
5	0	0	0	0	475	
6	0	0	0	0	497	
7	0	0	0	0	536	
8	0	0	0	0	459	
9	0	0	0	0	512	
10	0	0	0	0	490	
11	0	0	0	0	513	
12	0	0	0	0	512	
13	0	0	0	0	431	
14	0	0	0	0	547	
15	0	0	0	0	485	
0	0	0	0	0	496	
1	0	0	0	0	551	
2	0	0	0	0	440	
3	0	0	0	0	533	
4	0	0	0	0	476	
5	0	0	0	0	515	
6	0	0	0	0	532	
7	0	0	0	0	424	
8	0	0	0	0	546	
9	0	0	0	0	484	
10	0	0	0	0	501	
11	0	0	0	0	512	
12	0	0	0	0	449	
13	0	0	0	0	535	
14	0	0	0	0	481	
15	0	0	0	0	489	
0	0	0	0	0	516	
1	0	0	0	0	442	
2	0	0	0	0	541	
3	0	0	0	0	482	
4	0	0	0	0	515	
5	0	0	0	0	481	
6	0	0	0	0	520	
7	0	0	0	0	511	
8	0	0	0	0	475	
9	0	0	0	0	510	
10	0	0	0	0	512	
11	0	0	0	0	426	
12	0	0	0	0	551	
13	0	0	0	0	487	
14	0	0	0	0	489	
15	0	0	0	0	517	
0	0	0	0	0	429	
1	0	0	0	0	521	
2	0	0	0	0	502	
3	0	0	0	0	506	
4	0	0	0	0	498	
5	0	0	0	0	448	
6	0	0	0	0	545	
7	0	0	0	0	447	
8	0	0	0	0	565	
9	0	0	0	0	502	
10	0	0	0	0	420	
11	0	0	0	0	536	
12	0	0	0	0	512	
13	0	0	0	0	508	
14	0	0	0	0	532	
15	0	0	0	0	419	
0	0	0	0	0	552	
1	0	0	0	0	459	
2	0	0	0	0	530	
3	0	0	0	0	519	
4	0	0	0	0	418	
5	0	0	0	0	556	
6	0	0	0	0	493	
7	0	0	0	0	518	
8	0	0	0	0	527	
9	0	0	0	0	415	
10	0	0	0	0	551	
11	0	0	0	0	469	
12	0	0	0	0	524	
13	0	0	0	0	538	
14	0	0	0	0	418	
15	0	0	0	0	552	
0	0	0	0	0	460	
1	0	0	0	0	527	
2	0	0	0	0	518	
3	0	0	0	0	420	
4	0	0	0	0	565	
5	0	0	0	0	452	
6	0	0	0	0	532	
7	0	0	0	0	520	
8	0	0	0	0	368	
9	0	0	0	0	617	
10	0	0	0	0	398	
11	0	0	0	0	531	
12	0	0	0	0	526	
13	0	0	0	0	412	
14	0	0	0	0	564	
15	0	0	0	0	454	
0	0	0	0	0	442	
1	0	0	0	0	643	
2	0	0	0	0	347	
3	0	0	0	0	538	
4	0	0	0	0	449	
5	0	0	0	0	515	
6	0	0	0	0	590	
7	0	0	0	0	388	
8	0	0	0	0	547	
9	0	0	0	0	451	
10	0	0	0	0	478	
11	0	0	0	0	565	
12	0	0	0	0	433	
13	0	0	0	0	553	
14	0	0	0	0	486	
15	0	0	0	0	515	
0	0	0	0	0	572	
1	0	0	0	0	374	
2	0	0	0	0	646	
3	0	0	0	0	443	
4	0	0	0	0	520	
5	0	0	0	0	590	
6	0	0	0	0	359	
7	0	0	0	0	696	
8	0	0	0	0	362	
9	0	0	0	0	651	
10	0	0	0	0	425	
11	0	0	0	0	376	
12	0	0	0	0	555	
13	0	0	0	0	523	
14	0	0	0	0	402	
15	0	0	0	0	575	
0	0	0	0	0	459	
1	0	0	0	0	295	
2	0	0	0	0	862	
3	0	0	0	0	321	
4	0	0	0	0	617	
5	0	0	0	0	460	
6	0	0	0	0	516	
7	0	0	0	0	481	
8	0	0	0	0	445	
9	0	0	0	0	718	
10	0	0	0	0	359	
11	0	0	0	0	512	
12	0	0	0	0	839	
13	0	0	0	0	114	
14	0	0	0	0	519	
15	0	0	0	0	502	
0	0	0	0	0	319	
1	0	0	0	0	787	
2	0	0	0	0	240	
3	0	0	0	0	569	
4	0	0	0	0	575	
5	0	0	0	0	468	
6	0	0	0	0	419	
7	0	0	0	0	406	
8	0	0	0	0	577	
9	0	0	0	0	309	
10	0	0	0	0	689	
11	0	0	0	0	428	
12	0	0	0	0	764	
13	0	0	0	0	549	
14	0	0	0	0	277	
15	0	0	0	0	725	
0	0	0	0	0	267	
1	0	0	0	0	545	
2	0	0	0	0	347	
3	0	0	0	0	723	
4	0	0	0	0	235	
5	0	0	0	0	926	
6	0	0	0	0	315	
7	0	0	0	0	578	
8	0	0	0	0	428	
9	0	0	0	0	731	
10	0	0	0	0	547	
11	0	0	0	0	375	
12	0	0	0	0	375	
13	0	0	0	0	703	
14	0	0	0	0	363	
15	0	0	0	0	1022	
0	0	0	0	0	236	
1	0	0	0	0	452	
2	0	0	0	0	591	
3	0	0	0	0	139	
4	0	0	0	0	1022	
5	0	0	0	0	375	
6	0	0	0	0	173	
7	0	0	0	0	606	
8	0	0	0	0	148	
9	0	0	0	0	652	
10	0	0	0	0	165	
11	0	0	0	0	1022	
12	0	0	0	0	0	
13	0	0	0	0	919	
14	0	0	0	0	255	
15	0	0	0	0	553	
0	0	0	0	0	444	
1	0	0	0	0	307	
2	0	0	0	0	777	
3	0	0	0	0	420	
4	0	0	0	0	1022	
5	0	0	0	0	254	
6	0	0	0	0	1022	
7	0	0	0	0	275	
8	0	0	0	0	11	
9	0	0	0	0	1022	
10	0	0	0	0	0	
11	0	0	0	0	442	
12	0	0	0	0	358	
13	0	0	0	0	564	
14	0	0	0	0	424	
15	0	0	0	0	348	
0	0	0	0	0	514	
1	0	0	0	0	959	
2	0	0	0	0	135	
3	0	0	0	0	553	
4	0	0	0	0	68	
5	0	0	0	0	548	
6	0	0	0	0	455	
7	0	0	0	0	343	
8	0	0	0	0	546	
9	0	0	0	0	232	
10	0	0	0	0	790	
11	0	0	0	0	127	
12	0	0	0	0	1022	
13	0	0	0	0	666	
14	0	0	0	0	275	
15	0	0	0	0	680	
0	0	0	0	0	396	
1	0	0	0	0	658	
2	0	0	0	0	511	
3	0	0	0	0	408	
4	0	0	0	0	529	
5	0	0	0	0	486	
6	0	0	0	0	469	
7	0	0	0	0	70	
8	0	0	0	0	556	
9	0	0	0	0	0	
10	0	0	0	0	531	
11	0	0	0	0	123	
12	0	0	0	0	559	
13	0	0	0	0	366	
14	0	0	0	0	0	
15	0	0	0	0	949	
0	0	0	0	0	0	
1	0	0	0	0	1022	
2	0	0	0	0	172	
3	0	0	0	0	565	
4	0	0	0	0	471	
5	0	0	0	0	0	
6	0	0	0	0	745	
7	0	0	0	0	0	
8	0	0	0	0	503	
9	0	0	0	0	481	
10	0	0	0	0	557	
11	0	0	0	0	683	
12	0	0	0	0	0	
13	0	0	0	0	646	
14	0	0	0	0	329	
15	0	0	0	0	691	
0	0	0	0	0	294	
1	0	0	0	0	674	
2	0	0	0	0	0	
3	0	0	0	0	824	
4	0	0	0	0	0	
5	0	0	0	0	367	
6	0	0	0	0	242	
7	0	0	0	0	532	
8	0	0	0	0	565	
9	0	0	0	0	591	
10	0	0	0	0	502	
11	0	0	0	0	630	
12	0	0	0	0	548	
13	0	0	0	0	377	
14	0	0	0	0	1022	
15	0	0	0	0	398	
0	0	0	0	0	408	
1	0	0	0	0	444	
2	0	0	0	0	671	
3	0	0	0	0	221	
4	0	0	0	0	472	
5	0	0	0	0	460	
6	0	0	0	0	445	
7	0	0	0	0	704	
8	0	0	0	0	503	
9	0	0	0	0	424	
10	0	0	0	0	508	
11	0	0	0	0	517	
12	0	0	0	0	456	
13	0	0	0	0	489	
14	0	0	0	0	577	
15	0	0	0	0	529	
0	0	0	0	0	418	
1	0	0	0	0	513	
2	0	0	0	0	454	
3	0	0	0	0	432	
4	0	0	0	0	540	
5	0	0	0	0	424	
6	0	0	0	0	487	
7	0	0	0	0	432	
8	0	0	0	0	568	
9	0	0	0	0	489	
10	0	0	0	0	375	
11	0	0	0	0	475	
12	0	0	0	0	425	
13	0	0	0	0	655	
14	0	0	0	0	540	
15	0	0	0	0	353	
0	0	0	0	0	601	
1	0	0	0	0	415	
2	0	0	0	0	479	
3	0	0	0	0	509	
4	0	0	0	0	353	
5	0	0	0	0	591	
6	0	0	0	0	404	
7	0	0	0	0	531	
8	0	0	0	0	470	
9	0	0	0	0	441	
10	0	0	0	0	563	
11	0	0	0	0	474	
12	0	0	0	0	496	
13	0	0	0	0	536	
14	0	0	0	0	361	
15	0	0	0	0	615	
0	0	0	0	0	492	
1	0	0	0	0	452	
2	0	0	0	0	526	
3	0	0	0	0	439	
4	0	0	0	0	589	
5	0	0	0	0	468	
6	0	0	0	0	526	
7	0	0	0	0	508	
8	0	0	0	0	342	
9	0	0	0	0	652	
10	0	0	0	0	438	
11	0	0	0	0	509	
12	0	0	0	0	541	
13	0	0	0	0	371	
14	0	0	0	0	622	
15	0	0	0	0	448	
0	0	0	0	0	486	
1	0	0	0	0	544	
2	0	0	0	0	349	
3	0	0	0	0	616	
4	0	0	0	0	439	
5	0	0	0	0	526	
6	0	0	0	0	519	
7	0	0	0	0	437	
8	0	0	0	0	583	
9	0	0	0	0	487	
10	0	0	0	0	518	
11	0	0	0	0	527	
12	0	0	0	0	396	
13	0	0	0	0	607	
14	0	0	0	0	462	
15	0	0	0	0	504	
0	0	0	0	0	547	
1	0	0	0	0	392	
2	0	0	0	0	612	
3	0	0	0	0	430	
4	0	0	0	0	510	
5	0	0	0	0	538	
6	0	0	0	0	395	
7	0	0	0	0	569	
8	0	0	0	0	455	
9	0	0	0	0	552	
10	0	0	0	0	533	
11	0	0	0	0	412	
12	0	0	0	0	592	
13	0	0	0	0	467	
14	0	0	0	0	518	
15	0	0	0	0	562	
0	0	0	0	0	419	
1	0	0	0	0	495	
2	0	0	0	0	472	
3	0	0	0	0	558	
4	0	0	0	0	511	
5	0	0	0	0	397	
6	0	0	0	0	599	
7	0	0	0	0	469	
8	0	0	0	0	520	
9	0	0	0	0	503	
10	0	0	0	0	408	
11	0	0	0	0	639	
12	0	0	0	0	436	
13	0	0	0	0	514	
14	0	0	0	0	518	
15	0	0	0	0	391	
0	0	0	0	0	591	
1	0	0	0	0	451	
2	0	0	0	0	496	
3	0	0	0	0	491	
4	0	0	0	0	457	
5	0	0	0	0	577	
6	0	0	0	0	467	
7	0	0	0	0	511	
8	0	0	0	0	543	
9	0	0	0	0	408	
10	0	0	0	0	606	
11	0	0	0	0	453	
12	0	0	0	0	510	
13	0	0	0	0	523	
14	0	0	0	0	399	
15	0	0	0	0	601	
0	0	0	0	0	455	
1	0	0	0	0	514	
2	0	0	0	0	521	
3	0	0	0	0	415	
4	0	0	0	0	580	
5	0	0	0	0	509	
6	0	0	0	0	494	
7	0	0	0	0	518	
8	0	0	0	0	411	
9	0	0	0	0	593	
10	0	0	0	0	455	
11	0	0	0	0	529	
12	0	0	0	0	508	
13	0	0	0	0	430	
14	0	0	0	0	600	
15	0	0	0	0	492	
0	0	0	0	0	503	
1	0	0	0	0	519	
2	0	0	0	0	427	
3	0	0	0	0	584	
4	0	0	0	0	522	
5	0	0	0	0	515	
6	0	0	0	0	512	
7	0	0	0	0	409	
8	0	0	0	0	593	
9	0	0	0	0	472	
10	0	0	0	0	511	
11	0	0	0	0	527	
12	0	0	0	0	428	
13	0	0	0	0	583	
14	0	0	0	0	494	
15	0	0	0	0	514	
0	0	0	0	0	515	
1	0	0	0	0	407	
2	0	0	0	0	620	
3	0	0	0	0	471	
4	0	0	0	0	517	
5	0	0	0	0	515	
6	0	0	0	0	451	
7	0	0	0	0	615	
8	0	0	0	0	427	
9	0	0	0	0	506	
10	0	0	0	0	534	
11	0	0	0	0	413	
12	0	0	0	0	599	
13	0	0	0	0	464	
14	0	0	0	0	516	
15	0	0	0	0	529	
0	0	0	0	0	404	
1	0	0	0	0	634	
2	0	0	0	0	447	
3	0	0	0	0	522	
4	0	0	0	0	516	
5	0	0	0	0	411	
6	0	0	0	0	613	
7	0	0	0	0	471	
8	0	0	0	0	510	
9	0	0	0	0	525	
10	0	0	0	0	418	
11	0	0	0	0	598	
12	0	0	0	0	465	
13	0	0	0	0	518	
14	0	0	0	0	513	
15	0	0	0	0	471	
0	0	0	0	0	594	
1	0	0	0	0	445	
2	0	0	0	0	598	
3	0	0	0	0	502	
4	0	0	0	0	418	
5	0	0	0	0	586	
6	0	0	0	0	451	
7	0	0	0	0	506	
8	0	0	0	0	529	
9	0	0	0	0	410	
10	0	0	0	0	615	
11	0	0	0	0	481	
12	0	0	0	0	508	
13	0	0	0	0	529	
14	0	0	0	0	416	
15	0	0	0	0	601	
0	0	0	0	0	460	
1	0	0	0	0	557	
2	0	0	0	0	518	
3	0	0	0	0	420	
4	0	0	0	0	616	
5	0	0	0	0	464	
6	0	0	0	0	512	
7	0	0	0	0	529	
8	0	0	0	0	406	
9	0	0	0	0	644	
10	0	0	0	0	471	
11	0	0	0	0	505	
12	0	0	0	0	518	
13	0	0	0	0	446	
14	0	0	0	0	609	
15	0	0	0	0	451	
0	0	0	0	0	520	
1	0	0	0	0	527	
2	0	0	0	0	381	
3	0	0	0	0	650	
4	0	0	0	0	447	
5	0	0	0	0	482	
6	0	0	0	0	549	
7	0	0	0	0	405	
8	0	0	0	0	615	
9	0	0	0	0	504	
10	0	0	0	0	470	
11	0	0	0	0	464	
12	0	0	0	0	483	
13	0	0	0	0	738	
14	0	0	0	0	443	
15	0	0	0	0	526	
0	0	0	0	0	534	
1	0	0	0	0	337	
2	0	0	0	0	764	
3	0	0	0	0	496	
4	0	0	0	0	449	
5	0	0	0	0	526	
6	0	0	0	0	631	
7	0	0	0	0	461	
8	0	0	0	0	705	
9	0	0	0	0	431	
10	0	0	0	0	675	
11	0	0	0	0	441	
12	0	0	0	0	540	
13	0	0	0	0	475	
14	0	0	0	0	722	
15	0	0	0	0	436	
0	0	0	0	0	366	
1	0	0	0	0	654	
2	0	0	0	0	723	
3	0	0	0	0	528	
4	0	0	0	0	335	
5	0	0	0	0	390	
6	0	0	0	0	751	
7	0	0	0	0	281	
8	0	0	0	0	720	
9	0	0	0	0	681	
10	0	0	0	0	131	
11	0	0	0	0	745	
12	0	0	0	0	495	
13	0	0	0	0	123	
14	0	0	0	0	1022	
15	0	0	0	0	119	
0	0	0	0	0	172	
1	0	0	0	0	888	
2	0	0	0	0	140	
3	0	0	0	0	1022	
4	0	0	0	0	8	
5	0	0	0	0	1022	
6	0	0	0	0	569	
7	0	0	0	0	97	
8	0	0	0	0	600	
9	0	0	0	0	1022	
10	0	0	0	0	184	
11	0	0	0	0	1022	
12	0	0	0	0	359	
13	0	0	0	0	524	
14	0	0	0	0	457	
15	0	0	0	0	131	
0	0	0	0	0	1022	
1	0	0	0	0	228	
2	0	0	0	0	290	
3	0	0	0	0	532	
4	0	0	0	0	259	
5	0	0	0	0	866	
6	0	0	0	0	102	
7	0	0	0	0	624	
8	0	0	0	0	334	
9	0	0	0	0	652	
10	0	0	0	0	0	
11	0	0	0	0	22	
12	0	0	0	0	836	
13	0	0	0	0	257	
14	0	0	0	0	1022	
15	0	0	0	0	586	
0	0	0	0	0	687	
1	0	0	0	0	362	
2	0	0	0	0	0	
3	0	0	0	0	850	
4	0	0	0	0	0	
5	0	0	0	0	1022	
6	0	0	0	0	491	
7	0	0	0	0	818	
8	0	0	0	0	657	
9	0	0	0	0	115	
10	0	0	0	0	700	
11	0	0	0	0	907	
12	0	0	0	0	385	
13	0	0	0	0	33	
14	0	0	0	0	466	
15	0	0	0	0	335	
0	0	0	0	0	1022	
1	0	0	0	0	116	
2	0	0	0	0	670	
3	0	0	0	0	227	
4	0	0	0	0	1022	
5	0	0	0	0	336	
6	0	0	0	0	676	
7	0	0	0	0	565	
8	0	0	0	0	946	
9	0	0	0	0	973	
10	0	0	0	0	174	
11	0	0	0	0	562	
12	0	0	0	0	457	
13	0	0	0	0	823	
14	0	0	0	0	616	
15	0	0	0	0	0	
0	0	0	0	0	696	
1	0	0	0	0	450	
2	0	0	0	0	238	
3	0	0	0	0	893	
4	0	0	0	0	605	
5	0	0	0	0	0	
6	0	0	0	0	424	
7	0	0	0	0	1022	
8	0	0	0	0	0	
9	0	0	0	0	612	
10	0	0	0	0	1	
11	0	0	0	0	1022	
12	0	0	0	0	327	
13	0	0	0	0	403	
14	0	0	0	0	1022	
15	0	0	0	0	98	
0	0	0	0	0	1022	
1	0	0	0	0	202	
2	0	0	0	0	1022	
3	0	0	0	0	340	
4	0	0	0	0	0	
5	0	0	0	0	723	
6	0	0	0	0	457	
7	0	0	0	0	439	
8	0	0	0	0	306	
9	0	0	0	0	215	
10	0	0	0	0	331	
11	0	0	0	0	257	
12	0	0	0	0	331	
13	0	0	0	0	690	
14	0	0	0	0	56	
15	0	0	0	0	944	
0	0	0	0	0	305	
1	0	0	0	0	412	
2	0	0	0	0	440	
3	0	0	0	0	809	
4	0	0	0	0	419	
5	0	0	0	0	765	
6	0	0	0	0	380	
7	0	0	0	0	480	
8	0	0	0	0	412	
9	0	0	0	0	583	
10	0	0	0	0	271	
11	0	0	0	0	530	
12	0	0	0	0	447	
13	0	0	0	0	583	
14	0	0	0	0	644	
15	0	0	0	0	421	
0	0	0	0	0	435	
1	0	0	0	0	472	
2	0	0	0	0	462	
3	0	0	0	0	606	
4	0	0	0	0	497	
5	0	0	0	0	677	
6	0	0	0	0	259	
7	0	0	0	0	376	
8	0	0	0	0	719	
9	0	0	0	0	473	
10	0	0	0	0	483	
11	0	0	0	0	615	
12	0	0	0	0	303	
13	0	0	0	0	835	
14	0	0	0	0	425	
15	0	0	0	0	412	
0	0	0	0	0	598	
1	0	0	0	0	461	
2	0	0	0	0	519	
3	0	0	0	0	474	
4	0	0	0	0	440	
5	0	0	0	0	522	
6	0	0	0	0	376	
7	0	0	0	0	641	
8	0	0	0	0	449	
9	0	0	0	0	544	
10	0	0	0	0	552	
11	0	0	0	0	399	
12	0	0	0	0	644	
13	0	0	0	0	486	
14	0	0	0	0	494	
15	0	0	0	0	551	
0	0	0	0	0	396	
1	0	0	0	0	601	
2	0	0	0	0	476	
3	0	0	0	0	558	
4	0	0	0	0	591	
5	0	0	0	0	345	
6	0	0	0	0	664	
7	0	0	0	0	482	
8	0	0	0	0	469	
9	0	0	0	0	560	
10	0	0	0	0	486	
11	0	0	0	0	572	
12	0	0	0	0	518	
13	0	0	0	0	629	
14	0	0	0	0	513	
15	0	0	0	0	392	
0	0	0	0	0	679	
1	0	0	0	0	473	
2	0	0	0	0	485	
3	0	0	0	0	556	
4	0	0	0	0	310	
5	0	0	0	0	605	
6	0	0	0	0	504	
7	0	0	0	0	464	
8	0	0	0	0	558	
9	0	0	0	0	334	
10	0	0	0	0	647	
11	0	0	0	0	477	
12	0	0	0	0	536	
13	0	0	0	0	527	
14	0	0	0	0	330	
15	0	0	0	0	729	
0	0	0	0	0	443	
1	0	0	0	0	484	
2	0	0	0	0	566	
3	0	0	0	0	407	
4	0	0	0	0	639	
5	0	0	0	0	416	
6	0	0	0	0	549	
7	0	0	0	0	501	
8	0	0	0	0	402	
9	0	0	0	0	603	
10	0	0	0	0	587	
11	0	0	0	0	509	
12	0	0	0	0	603	
13	0	0	0	0	323	
14	0	0	0	0	654	
15	0	0	0	0	458	
0	0	0	0	0	508	
1	0	0	0	0	572	
2	0	0	0	0	345	
3	0	0	0	0	611	
4	0	0	0	0	514	
5	0	0	0	0	448	
6	0	0	0	0	551	
7	0	0	0	0	376	
8	0	0	0	0	653	
9	0	0	0	0	473	
10	0	0	0	0	572	
11	0	0	0	0	492	
12	0	0	0	0	438	
13	0	0	0	0	628	
14	0	0	0	0	463	
15	0	0	0	0	521	
0	0	0	0	0	563	
1	0	0	0	0	333	
2	0	0	0	0	675	
3	0	0	0	0	403	
4	0	0	0	0	590	
5	0	0	0	0	538	
6	0	0	0	0	336	
7	0	0	0	0	644	
8	0	0	0	0	464	
9	0	0	0	0	502	
10	0	0	0	0	586	
11	0	0	0	0	336	
12	0	0	0	0	683	
13	0	0	0	0	441	
14	0	0	0	0	478	
15	0	0	0	0	546	
0	0	0	0	0	409	
1	0	0	0	0	644	
2	0	0	0	0	486	
3	0	0	0	0	484	
4	0	0	0	0	548	
5	0	0	0	0	380	
6	0	0	0	0	632	
7	0	0	0	0	498	
8	0	0	0	0	510	
9	0	0	0	0	525	
10	0	0	0	0	332	
11	0	0	0	0	675	
12	0	0	0	0	454	
13	0	0	0	0	518	
14	0	0	0	0	550	
15	0	0	0	0	350	
0	0	0	0	0	672	
1	0	0	0	0	500	
2	0	0	0	0	491	
3	0	0	0	0	572	
4	0	0	0	0	335	
5	0	0	0	0	681	
6	0	0	0	0	426	
7	0	0	0	0	487	
8	0	0	0	0	572	
9	0	0	0	0	344	
10	0	0	0	0	657	
11	0	0	0	0	477	
12	0	0	0	0	496	
13	0	0	0	0	557	
14	0	0	0	0	407	
15	0	0	0	0	611	
0	0	0	0	0	520	
1	0	0	0	0	475	
2	0	0	0	0	581	
3	0	0	0	0	337	
4	0	0	0	0	663	
5	0	0	0	0	467	
6	0	0	0	0	482	
7	0	0	0	0	548	
8	0	0	0	0	384	
9	0	0	0	0	645	
10	0	0	0	0	467	
11	0	0	0	0	490	
12	0	0	0	0	579	
13	0	0	0	0	349	
14	0	0	0	0	689	
15	0	0	0	0	487	
0	0	0	0	0	472	
1	0	0	0	0	574	
2	0	0	0	0	354	
3	0	0	0	0	662	
4	0	0	0	0	468	
5	0	0	0	0	454	
6	0	0	0	0	621	
7	0	0	0	0	339	
8	0	0	0	0	637	
9	0	0	0	0	503	
10	0	0	0	0	478	
11	0	0	0	0	556	
12	0	0	0	0	376	
13	0	0	0	0	683	
14	0	0	0	0	508	
15	0	0	0	0	515	
0	0	0	0	0	556	
1	0	0	0	0	363	
2	0	0	0	0	713	
3	0	0	0	0	459	
4	0	0	0	0	502	
5	0	0	0	0	558	
6	0	0	0	0	359	
7	0	0	0	0	710	
8	0	0	0	0	499	
9	0	0	0	0	453	
10	0	0	0	0	563	
11	0	0	0	0	347	
12	0	0	0	0	661	
13	0	0	0	0	483	
14	0	0	0	0	487	
15	0	0	0	0	572	
0	0	0	0	0	397	
1	0	0	0	0	675	
2	0	0	0	0	474	
3	0	0	0	0	455	
4	0	0	0	0	601	
5	0	0	0	0	344	
6	0	0	0	0	682	
7	0	0	0	0	471	
8	0	0	0	0	492	
9	0	0	0	0	569	
10	0	0	0	0	344	
11	0	0	0	0	687	
12	0	0	0	0	467	
13	0	0	0	0	450	
14	0	0	0	0	663	
15	0	0	0	0	334	
0	0	0	0	0	647	
1	0	0	0	0	483	
2	0	0	0	0	480	
3	0	0	0	0	582	
4	0	0	0	0	363	
5	0	0	0	0	651	
6	0	0	0	0	475	
7	0	0	0	0	516	
8	0	0	0	0	527	
9	0	0	0	0	371	
10	0	0	0	0	675	
11	0	0	0	0	498	
12	0	0	0	0	469	
13	0	0	0	0	606	
14	0	0	0	0	343	
15	0	0	0	0	650	
0	0	0	0	0	472	
1	0	0	0	0	484	
2	0	0	0	0	596	
3	0	0	0	0	342	
4	0	0	0	0	637	
5	0	0	0	0	542	
6	0	0	0	0	347	
7	0	0	0	0	772	
8	0	0	0	0	368	
9	0	0	0	0	537	
10	0	0	0	0	610	
11	0	0	0	0	91	
12	0	0	0	0	1004	
13	0	0	0	0	196	
14	0	0	0	0	667	
15	0	0	0	0	672	
0	0	0	0	0	310	
1	0	0	0	0	487	
2	0	0	0	0	726	
3	0	0	0	0	574	
4	0	0	0	0	394	
5	0	0	0	0	587	
6	0	0	0	0	594	
7	0	0	0	0	516	
8	0	0	0	0	536	
9	0	0	0	0	569	
10	0	0	0	0	491	
11	0	0	0	0	335	
12	0	0	0	0	611	
13	0	0	0	0	489	
14	0	0	0	0	332	
15	0	0	0	0	548	
0	0	0	0	0	564	
1	0	0	0	0	305	
2	0	0	0	0	628	
3	0	0	0	0	147	
4	0	0	0	0	609	
5	0	0	0	0	482	
6	0	0	0	0	529	
7	0	0	0	0	358	
8	0	0	0	0	311	
9	0	0	0	0	545	
10	0	0	0	0	828	
11	0	0	0	0	264	
12	0	0	0	0	608	
13	0	0	0	0	524	
14	0	0	0	0	486	
15	0	0	0	0	737	
0	0	0	0	0	295	
1	0	0	0	0	734	
2	0	0	0	0	421	
3	0	0	0	0	487	
4	0	0	0	0	1022	
5	0	0	0	0	181	
6	0	0	0	0	964	
7	0	0	0	0	187	
8	0	0	0	0	160	
9	0	0	0	0	772	
10	0	0	0	0	476	
11	0	0	0	0	982	
12	0	0	0	0	600	
13	0	0	0	0	514	
14	0	0	0	0	299	
15	0	0	0	0	1022	
0	0	0	0	0	255	
1	0	0	0	0	600	
2	0	0	0	0	527	
3	0	0	0	0	766	
4	0	0	0	0	561	
5	0	0	0	0	404	
6	0	0	0	0	707	
7	0	0	0	0	448	
8	0	0	0	0	532	
9	0	0	0	0	218	
10	0	0	0	0	870	
11	0	0	0	0	0	
12	0	0	0	0	881	
13	0	0	0	0	158	
14	0	0	0	0	699	
15	0	0	0	0	402	
0	0	0	0	0	924	
1	0	0	0	0	0	
2	0	0	0	0	467	
3	0	0	0	0	453	
4	0	0	0	0	316	
5	0	0	0	0	548	
6	0	0	0	0	144	
7	0	0	0	0	216	
8	0	0	0	0	94	
9	0	0	0	0	437	
10	0	0	0	0	738	
11	0	0	0	0	528	
12	0	0	0	0	0	
13	0	0	0	0	610	
14	0	0	0	0	553	
15	0	0	0	0	161	
0	0	0	0	0	0	
1	0	0	0	0	1022	
2	0	0	0	0	0	
3	0	0	0	0	1022	
4	0	0	0	0	0	
5	0	0	0	0	532	
6	0	0	0	0	51	
7	0	0	0	0	659	
8	0	0	0	0	306	
9	0	0	0	0	705	
10	0	0	0	0	391	
11	0	0	0	0	637	
12	0	0	0	0	0	
13	0	0	0	0	1022	
14	0	0	0	0	1022	
15	0	0	0	0	0	
0	0	0	0	0	1022	
1	0	0	0	0	0	
2	0	0	0	0	514	
3	0	0	0	0	143	
4	0	0	0	0	336	
5	0	0	0	0	409	
6	0	0	0	0	1022	
7	0	0	0	0	0	
8	0	0	0	0	894	
9	0	0	0	0	555	
10	0	0	0	0	1022	
11	0	0	0	0	0	
12	0	0	0	0	662	
13	0	0	0	0	50	
14	0	0	0	0	838	
15	0	0	0	0	460	
0	0	0	0	0	144	
1	0	0	0	0	207	
2	0	0	0	0	795	
3	0	0	0	0	384	
4	0	0	0	0	1022	
5	0	0	0	0	263	
6	0	0	0	0	740	
7	0	0	0	0	267	
8	0	0	0	0	752	
9	0	0	0	0	1022	
10	0	0	0	0	63	
11	0	0	0	0	580	
12	0	0	0	0	621	
13	0	0	0	0	269	
14	0	0	0	0	1022	
15	0	0	0	0	196	
0	0	0	0	0	824	
1	0	0	0	0	300	
2	0	0	0	0	399	
3	0	0	0	0	1022	
4	0	0	0	0	384	
5	0	0	0	0	1022	
6	0	0	0	0	220	
7	0	0	0	0	296	
8	0	0	0	0	877	
9	0	0	0	0	247	
10	0	0	0	0	634	
11	0	0	0	0	678	
12	0	0	0	0	682	
13	0	0	0	0	289	
14	0	0	0	0	480	
15	0	0	0	0	335	
0	0	0	0	0	1022	
1	0	0	0	0	370	
2	0	0	0	0	546	
3	0	0	0	0	487	
4	0	0	0	0	416	
5	0	0	0	0	1022	
6	0	0	0	0	168	
7	0	0	0	0	0	
8	0	0	0	0	328	
9	0	0	0	0	502	
10	0	0	0	0	450	
11	0	0	0	0	474	
12	0	0	0	0	1022	
13	0	0	0	0	374	
14	0	0	0	0	555	
15	0	0	0	0	405	
0	0	0	0	0	304	
1	0	0	0	0	795	
2	0	0	0	0	220	
3	0	0	0	0	406	
4	0	0	0	0	718	
5	0	0	0	0	425	
6	0	0	0	0	489	
7	0	0	0	0	543	
8	0	0	0	0	436	
9	0	0	0	0	665	
10	0	0	0	0	489	
11	0	0	0	0	211	
12	0	0	0	0	572	
13	0	0	0	0	529	
14	0	0	0	0	448	
15	0	0	0	0	903	
0	0	0	0	0	99	
1	0	0	0	0	599	
2	0	0	0	0	221	
3	0	0	0	0	878	
4	0	0	0	0	366	
5	0	0	0	0	474	
6	0	0	0	0	434	
7	0	0	0	0	613	
8	0	0	0	0	592	
9	0	0	0	0	620	
10	0	0	0	0	283	
11	0	0	0	0	354	
12	0	0	0	0	893	
13	0	0	0	0	261	
14	0	0	0	0	830	
15	0	0	0	0	439	
0	0	0	0	0	519	
1	0	0	0	0	488	
2	0	0	0	0	359	
3	0	0	0	0	517	
4	0	0	0	0	708	
5	0	0	0	0	376	
6	0	0	0	0	761	
7	0	0	0	0	481	
8	0	0	0	0	373	
9	0	0	0	0	533	
10	0	0	0	0	386	
11	0	0	0	0	676	
12	0	0	0	0	541	
13	0	0	0	0	466	
14	0	0	0	0	544	
15	0	0	0	0	339	
0	0	0	0	0	759	
1	0	0	0	0	491	
2	0	0	0	0	511	
3	0	0	0	0	518	
4	0	0	0	0	352	
5	0	0	0	0	576	
6	0	0	0	0	438	
7	0	0	0	0	598	
8	0	0	0	0	523	
9	0	0	0	0	435	
10	0	0	0	0	549	
11	0	0	0	0	452	
12	0	0	0	0	499	
13	0	0	0	0	527	
14	0	0	0	0	338	
15	0	0	0	0	657	
0	0	0	0	0	449	
1	0	0	0	0	492	
2	0	0	0	0	564	
3	0	0	0	0	449	
4	0	0	0	0	603	
5	0	0	0	0	475	
6	0	0	0	0	498	
7	0	0	0	0	533	
8	0	0	0	0	448	
9	0	0	0	0	520	
10	0	0	0	0	477	
11	0	0	0	0	514	
12	0	0	0	0	541	
13	0	0	0	0	358	
14	0	0	0	0	647	
15	0	0	0	0	495	
0	0	0	0	0	452	
1	0	0	0	0	499	
2	0	0	0	0	316	
3	0	0	0	0	663	
4	0	0	0	0	500	
5	0	0	0	0	472	
6	0	0	0	0	610	
7	0	0	0	0	365	
8	0	0	0	0	641	
9	0	0	0	0	472	
10	0	0	0	0	526	
11	0	0	0	0	505	
12	0	0	0	0	402	
13	0	0	0	0	506	
14	0	0	0	0	635	
15	0	0	0	0	447	
0	0	0	0	0	550	
1	0	0	0	0	379	
2	0	0	0	0	615	
3	0	0	0	0	463	
4	0	0	0	0	505	
5	0	0	0	0	595	
6	0	0	0	0	432	
7	0	0	0	0	607	
8	0	0	0	0	415	
9	0	0	0	0	548	
10	0	0	0	0	530	
11	0	0	0	0	380	
12	0	0	0	0	716	
13	0	0	0	0	421	
14	0	0	0	0	518	
15	0	0	0	0	562	
0	0	0	0	0	376	
1	0	0	0	0	623	
2	0	0	0	0	499	
3	0	0	0	0	471	
4	0	0	0	0	613	
5	0	0	0	0	348	
6	0	0	0	0	626	
7	0	0	0	0	466	
8	0	0	0	0	472	
9	0	0	0	0	593	
10	0	0	0	0	355	
11	0	0	0	0	604	
12	0	0	0	0	576	
13	0	0	0	0	453	
14	0	0	0	0	553	
15	0	0	0	0	367	
0	0	0	0	0	655	
1	0	0	0	0	475	
2	0	0	0	0	467	
3	0	0	0	0	546	
4	0	0	0	0	370	
5	0	0	0	0	663	
6	0	0	0	0	461	
7	0	0	0	0	503	
8	0	0	0	0	547	
9	0	0	0	0	373	
10	0	0	0	0	609	
11	0	0	0	0	492	
12	0	0	0	0	479	
13	0	0	0	0	563	
14	0	0	0	0	388	
15	0	0	0	0	617	
0	0	0	0	0	491	
1	0	0	0	0	533	
2	0	0	0	0	534	
3	0	0	0	0	369	
4	0	0	0	0	613	
5	0	0	0	0	471	
6	0	0	0	0	519	
7	0	0	0	0	554	
8	0	0	0	0	360	
9	0	0	0	0	687	
10	0	0	0	0	440	
11	0	0	0	0	498	
12	0	0	0	0	564	
13	0	0	0	0	363	
14	0	0	0	0	620	
15	0	0	0	0	476	
0	0	0	0	0	502	
1	0	0	0	0	550	
2	0	0	0	0	357	
3	0	0	0	0	667	
4	0	0	0	0	463	
5	0	0	0	0	497	
6	0	0	0	0	545	
7	0	0	0	0	372	
8	0	0	0	0	620	
9	0	0	0	0	473	
10	0	0	0	0	504	
11	0	0	0	0	558	
12	0	0	0	0	384	
13	0	0	0	0	613	
14	0	0	0	0	500	
15	0	0	0	0	497	
0	0	0	0	0	526	
1	0	0	0	0	377	
2	0	0	0	0	616	
3	0	0	0	0	442	
4	0	0	0	0	512	
5	0	0	0	0	529	
6	0	0	0	0	389	
7	0	0	0	0	602	
8	0	0	0	0	476	
9	0	0	0	0	519	
10	0	0	0	0	573	
11	0	0	0	0	410	
12	0	0	0	0	598	
13	0	0	0	0	459	
14	0	0	0	0	507	
15	0	0	0	0	548	
0	0	0	0	0	376	
1	0	0	0	0	622	
2	0	0	0	0	462	
3	0	0	0	0	512	
4	0	0	0	0	539	
5	0	0	0	0	382	
6	0	0	0	0	605	
7	0	0	0	0	463	
8	0	0	0	0	516	
9	0	0	0	0	524	
10	0	0	0	0	445	
11	0	0	0	0	584	
12	0	0	0	0	487	
13	0	0	0	0	487	
14	0	0	0	0	546	
15	0	0	0	0	387	
0	0	0	0	0	594	
1	0	0	0	0	455	
2	0	0	0	0	511	
3	0	0	0	0	546	
4	0	0	0	0	350	
5	0	0	0	0	625	
6	0	0	0	0	459	
7	0	0	0	0	490	
8	0	0	0	0	563	
9	0	0	0	0	363	
10	0	0	0	0	630	
11	0	0	0	0	433	
12	0	0	0	0	517	
13	0	0	0	0	540	
14	0	0	0	0	372	
15	0	0	0	0	608	
0	0	0	0	0	456	
1	0	0	0	0	512	
2	0	0	0	0	546	
3	0	0	0	0	355	
4	0	0	0	0	617	
5	0	0	0	0	459	
6	0	0	0	0	504	
7	0	0	0	0	543	
8	0	0	0	0	380	
9	0	0	0	0	595	
10	0	0	0	0	466	
11	0	0	0	0	513	
12	0	0	0	0	551	
13	0	0	0	0	369	
14	0	0	0	0	600	
15	0	0	0	0	461	
0	0	0	0	0	521	
1	0	0	0	0	530	
2	0	0	0	0	372	
3	0	0	0	0	607	
4	0	0	0	0	453	
5	0	0	0	0	507	
6	0	0	0	0	562	
7	0	0	0	0	395	
8	0	0	0	0	574	
9	0	0	0	0	495	
10	0	0	0	0	510	
11	0	0	0	0	550	
12	0	0	0	0	374	
13	0	0	0	0	608	
14	0	0	0	0	447	
15	0	0	0	0	526	
0	0	0	0	0	536	
1	0	0	0	0	385	
2	0	0	0	0	593	
3	0	0	0	0	467	
4	0	0	0	0	524	
5	0	0	0	0	525	
6	0	0	0	0	391	
7	0	0	0	0	588	
8	0	0	0	0	444	
9	0	0	0	0	527	
10	0	0	0	0	542	
11	0	0	0	0	372	
12	0	0	0	0	573	
13	0	0	0	0	473	
14	0	0	0	0	504	
15	0	0	0	0	529	
0	0	0	0	0	374	
1	0	0	0	0	609	
2	0	0	0	0	463	
3	0	0	0	0	518	
4	0	0	0	0	539	
5	0	0	0	0	357	
6	0	0	0	0	622	
7	0	0	0	0	432	
8	0	0	0	0	524	
9	0	0	0	0	543	
10	0	0	0	0	369	
11	0	0	0	0	601	
12	0	0	0	0	437	
13	0	0	0	0	559	
14	0	0	0	0	554	
15	0	0	0	0	352	
0	0	0	0	0	602	
1	0	0	0	0	430	
2	0	0	0	0	541	
3	0	0	0	0	539	
4	0	0	0	0	368	
5	0	0	0	0	567	
6	0	0	0	0	435	
7	0	0	0	0	551	
8	0	0	0	0	517	
9	0	0	0	0	373	
10	0	0	0	0	595	
11	0	0	0	0	435	
12	0	0	0	0	552	
13	0	0	0	0	540	
14	0	0	0	0	357	
15	0	0	0	0	597	
0	0	0	0	0	434	
1	0	0	0	0	540	
