# OpenSignals Text File Format. Version 1
# {"98:D3:81:FD:6D:86": {"position": 0, "device": "bitalino_rev", "device name": "98:D3:81:FD:6D:86", "device connection": "BTH98:D3:81:FD:6D:86", "sampling rate": 100, "resolution": [4, 1, 1, 1, 1, 10], "firmware version": 1282, "comments": "", "keywords": "", "mode": 0, "sync interval": 2, "date": "2023-9-8", "time": "10:13:11.777", "channels": [1], "sensor": ["EMGBITREV"], "label": ["A1"], "column": ["nSeq", "I1", "I2", "O1", "O2", "A1"], "special": [{}], "digital IO": [0, 0, 1, 1]}}
# EndOfHeader
0	0	0	0	0	590	
1	0	0	0	0	385	
2	0	0	0	0	625	
3	0	0	0	0	548	
4	0	0	0	0	391	
5	0	0	0	0	591	
6	0	0	0	0	385	
7	0	0	0	0	625	
8	0	0	0	0	547	
9	0	0	0	0	387	
10	0	0	0	0	593	
11	0	0	0	0	392	
12	0	0	0	0	628	
13	0	0	0	0	548	
14	0	0	0	0	390	
15	0	0	0	0	588	
0	0	0	0	0	390	
1	0	0	0	0	627	
2	0	0	0	0	547	
3	0	0	0	0	389	
4	0	0	0	0	588	
5	0	0	0	0	396	
6	0	0	0	0	626	
7	0	0	0	0	548	
8	0	0	0	0	389	
9	0	0	0	0	602	
10	0	0	0	0	372	
11	0	0	0	0	629	
12	0	0	0	0	546	
13	0	0	0	0	391	
14	0	0	0	0	596	
15	0	0	0	0	375	
0	0	0	0	0	628	
1	0	0	0	0	548	
2	0	0	0	0	384	
3	0	0	0	0	593	
4	0	0	0	0	384	
5	0	0	0	0	629	
6	0	0	0	0	547	
7	0	0	0	0	390	
8	0	0	0	0	595	
9	0	0	0	0	373	
10	0	0	0	0	628	
11	0	0	0	0	546	
12	0	0	0	0	391	
13	0	0	0	0	597	
14	0	0	0	0	375	
15	0	0	0	0	624	
0	0	0	0	0	544	
1	0	0	0	0	392	
2	0	0	0	0	598	
3	0	0	0	0	373	
4	0	0	0	0	628	
5	0	0	0	0	549	
6	0	0	0	0	386	
7	0	0	0	0	592	
8	0	0	0	0	382	
9	0	0	0	0	636	
10	0	0	0	0	546	
11	0	0	0	0	394	
12	0	0	0	0	587	
13	0	0	0	0	384	
14	0	0	0	0	622	
15	0	0	0	0	543	
0	0	0	0	0	397	
1	0	0	0	0	591	
2	0	0	0	0	388	
3	0	0	0	0	623	
4	0	0	0	0	540	
5	0	0	0	0	406	
6	0	0	0	0	590	
7	0	0	0	0	380	
8	0	0	0	0	622	
9	0	0	0	0	545	
10	0	0	0	0	401	
11	0	0	0	0	591	
12	0	0	0	0	378	
13	0	0	0	0	622	
14	0	0	0	0	544	
15	0	0	0	0	400	
0	0	0	0	0	587	
1	0	0	0	0	382	
2	0	0	0	0	624	
3	0	0	0	0	545	
4	0	0	0	0	400	
5	0	0	0	0	590	
6	0	0	0	0	384	
7	0	0	0	0	618	
8	0	0	0	0	544	
9	0	0	0	0	400	
10	0	0	0	0	590	
11	0	0	0	0	382	
12	0	0	0	0	622	
13	0	0	0	0	545	
14	0	0	0	0	397	
15	0	0	0	0	588	
0	0	0	0	0	375	
1	0	0	0	0	625	
2	0	0	0	0	543	
3	0	0	0	0	402	
4	0	0	0	0	588	
5	0	0	0	0	391	
6	0	0	0	0	624	
7	0	0	0	0	542	
8	0	0	0	0	404	
9	0	0	0	0	590	
10	0	0	0	0	386	
11	0	0	0	0	623	
12	0	0	0	0	543	
13	0	0	0	0	404	
14	0	0	0	0	586	
15	0	0	0	0	380	
0	0	0	0	0	624	
1	0	0	0	0	543	
2	0	0	0	0	402	
3	0	0	0	0	588	
4	0	0	0	0	381	
5	0	0	0	0	625	
6	0	0	0	0	545	
7	0	0	0	0	402	
8	0	0	0	0	585	
9	0	0	0	0	386	
10	0	0	0	0	623	
11	0	0	0	0	543	
12	0	0	0	0	401	
13	0	0	0	0	586	
14	0	0	0	0	384	
15	0	0	0	0	624	
0	0	0	0	0	543	
1	0	0	0	0	401	
2	0	0	0	0	582	
3	0	0	0	0	384	
4	0	0	0	0	625	
5	0	0	0	0	540	
6	0	0	0	0	403	
7	0	0	0	0	583	
8	0	0	0	0	384	
9	0	0	0	0	625	
10	0	0	0	0	543	
11	0	0	0	0	403	
12	0	0	0	0	588	
13	0	0	0	0	381	
14	0	0	0	0	625	
15	0	0	0	0	541	
0	0	0	0	0	404	
1	0	0	0	0	586	
2	0	0	0	0	385	
3	0	0	0	0	625	
4	0	0	0	0	543	
5	0	0	0	0	404	
6	0	0	0	0	583	
7	0	0	0	0	385	
8	0	0	0	0	631	
9	0	0	0	0	540	
10	0	0	0	0	404	
11	0	0	0	0	583	
12	0	0	0	0	391	
13	0	0	0	0	626	
14	0	0	0	0	542	
15	0	0	0	0	404	
0	0	0	0	0	583	
1	0	0	0	0	385	
2	0	0	0	0	629	
3	0	0	0	0	545	
4	0	0	0	0	406	
5	0	0	0	0	583	
6	0	0	0	0	388	
7	0	0	0	0	627	
8	0	0	0	0	544	
9	0	0	0	0	406	
10	0	0	0	0	594	
11	0	0	0	0	381	
12	0	0	0	0	626	
13	0	0	0	0	538	
14	0	0	0	0	407	
15	0	0	0	0	587	
0	0	0	0	0	381	
1	0	0	0	0	620	
2	0	0	0	0	543	
3	0	0	0	0	407	
4	0	0	0	0	583	
5	0	0	0	0	391	
6	0	0	0	0	625	
7	0	0	0	0	544	
8	0	0	0	0	407	
9	0	0	0	0	596	
10	0	0	0	0	386	
11	0	0	0	0	622	
12	0	0	0	0	540	
13	0	0	0	0	408	
14	0	0	0	0	584	
15	0	0	0	0	379	
0	0	0	0	0	624	
1	0	0	0	0	540	
2	0	0	0	0	411	
3	0	0	0	0	584	
4	0	0	0	0	383	
5	0	0	0	0	625	
6	0	0	0	0	542	
7	0	0	0	0	407	
8	0	0	0	0	583	
9	0	0	0	0	384	
10	0	0	0	0	627	
11	0	0	0	0	539	
12	0	0	0	0	404	
13	0	0	0	0	588	
14	0	0	0	0	381	
15	0	0	0	0	620	
0	0	0	0	0	542	
1	0	0	0	0	413	
2	0	0	0	0	590	
3	0	0	0	0	381	
4	0	0	0	0	624	
5	0	0	0	0	540	
6	0	0	0	0	414	
7	0	0	0	0	587	
8	0	0	0	0	381	
9	0	0	0	0	624	
10	0	0	0	0	536	
11	0	0	0	0	417	
12	0	0	0	0	584	
13	0	0	0	0	405	
14	0	0	0	0	600	
15	0	0	0	0	540	
0	0	0	0	0	416	
1	0	0	0	0	572	
2	0	0	0	0	404	
3	0	0	0	0	599	
4	0	0	0	0	539	
5	0	0	0	0	419	
6	0	0	0	0	575	
7	0	0	0	0	407	
8	0	0	0	0	608	
9	0	0	0	0	551	
10	0	0	0	0	409	
11	0	0	0	0	575	
12	0	0	0	0	407	
13	0	0	0	0	591	
14	0	0	0	0	547	
15	0	0	0	0	415	
0	0	0	0	0	572	
1	0	0	0	0	422	
2	0	0	0	0	605	
3	0	0	0	0	537	
4	0	0	0	0	409	
5	0	0	0	0	574	
6	0	0	0	0	403	
7	0	0	0	0	601	
8	0	0	0	0	543	
9	0	0	0	0	415	
10	0	0	0	0	577	
11	0	0	0	0	405	
12	0	0	0	0	584	
13	0	0	0	0	534	
14	0	0	0	0	419	
15	0	0	0	0	571	
0	0	0	0	0	401	
1	0	0	0	0	611	
2	0	0	0	0	527	
3	0	0	0	0	454	
4	0	0	0	0	558	
5	0	0	0	0	406	
6	0	0	0	0	569	
7	0	0	0	0	527	
8	0	0	0	0	445	
9	0	0	0	0	579	
10	0	0	0	0	425	
11	0	0	0	0	593	
12	0	0	0	0	526	
13	0	0	0	0	410	
14	0	0	0	0	562	
15	0	0	0	0	428	
0	0	0	0	0	591	
1	0	0	0	0	518	
2	0	0	0	0	467	
3	0	0	0	0	550	
4	0	0	0	0	412	
5	0	0	0	0	596	
6	0	0	0	0	484	
7	0	0	0	0	466	
8	0	0	0	0	535	
9	0	0	0	0	427	
10	0	0	0	0	594	
11	0	0	0	0	496	
12	0	0	0	0	480	
13	0	0	0	0	536	
14	0	0	0	0	419	
15	0	0	0	0	596	
0	0	0	0	0	498	
1	0	0	0	0	470	
2	0	0	0	0	546	
3	0	0	0	0	414	
4	0	0	0	0	590	
5	0	0	0	0	493	
6	0	0	0	0	481	
7	0	0	0	0	547	
8	0	0	0	0	412	
9	0	0	0	0	563	
10	0	0	0	0	500	
11	0	0	0	0	476	
12	0	0	0	0	547	
13	0	0	0	0	422	
14	0	0	0	0	607	
15	0	0	0	0	498	
0	0	0	0	0	471	
1	0	0	0	0	555	
2	0	0	0	0	412	
3	0	0	0	0	582	
4	0	0	0	0	520	
5	0	0	0	0	461	
6	0	0	0	0	566	
7	0	0	0	0	475	
8	0	0	0	0	546	
9	0	0	0	0	522	
10	0	0	0	0	457	
11	0	0	0	0	551	
12	0	0	0	0	447	
13	0	0	0	0	535	
14	0	0	0	0	535	
15	0	0	0	0	464	
0	0	0	0	0	548	
1	0	0	0	0	450	
2	0	0	0	0	528	
3	0	0	0	0	518	
4	0	0	0	0	463	
5	0	0	0	0	538	
6	0	0	0	0	455	
7	0	0	0	0	567	
8	0	0	0	0	551	
9	0	0	0	0	413	
10	0	0	0	0	544	
11	0	0	0	0	447	
12	0	0	0	0	571	
13	0	0	0	0	547	
14	0	0	0	0	413	
15	0	0	0	0	563	
0	0	0	0	0	432	
1	0	0	0	0	577	
2	0	0	0	0	546	
3	0	0	0	0	407	
4	0	0	0	0	559	
5	0	0	0	0	433	
6	0	0	0	0	570	
7	0	0	0	0	547	
8	0	0	0	0	406	
9	0	0	0	0	562	
10	0	0	0	0	436	
11	0	0	0	0	574	
12	0	0	0	0	543	
13	0	0	0	0	403	
14	0	0	0	0	563	
15	0	0	0	0	435	
0	0	0	0	0	570	
1	0	0	0	0	545	
2	0	0	0	0	409	
3	0	0	0	0	565	
4	0	0	0	0	427	
5	0	0	0	0	575	
6	0	0	0	0	549	
7	0	0	0	0	403	
8	0	0	0	0	569	
9	0	0	0	0	428	
10	0	0	0	0	577	
11	0	0	0	0	552	
12	0	0	0	0	397	
13	0	0	0	0	572	
14	0	0	0	0	428	
15	0	0	0	0	577	
0	0	0	0	0	554	
1	0	0	0	0	399	
2	0	0	0	0	573	
3	0	0	0	0	431	
4	0	0	0	0	574	
5	0	0	0	0	556	
6	0	0	0	0	399	
7	0	0	0	0	568	
8	0	0	0	0	423	
9	0	0	0	0	577	
10	0	0	0	0	557	
11	0	0	0	0	400	
12	0	0	0	0	577	
13	0	0	0	0	422	
14	0	0	0	0	575	
15	0	0	0	0	559	
0	0	0	0	0	390	
1	0	0	0	0	587	
2	0	0	0	0	424	
3	0	0	0	0	577	
4	0	0	0	0	558	
5	0	0	0	0	391	
6	0	0	0	0	579	
7	0	0	0	0	421	
8	0	0	0	0	582	
9	0	0	0	0	558	
10	0	0	0	0	381	
11	0	0	0	0	579	
12	0	0	0	0	417	
13	0	0	0	0	586	
14	0	0	0	0	559	
15	0	0	0	0	381	
0	0	0	0	0	585	
1	0	0	0	0	414	
2	0	0	0	0	579	
3	0	0	0	0	564	
4	0	0	0	0	380	
5	0	0	0	0	583	
6	0	0	0	0	421	
7	0	0	0	0	585	
8	0	0	0	0	562	
9	0	0	0	0	382	
10	0	0	0	0	582	
11	0	0	0	0	420	
12	0	0	0	0	582	
13	0	0	0	0	563	
14	0	0	0	0	381	
15	0	0	0	0	580	
0	0	0	0	0	420	
1	0	0	0	0	593	
2	0	0	0	0	562	
3	0	0	0	0	369	
4	0	0	0	0	581	
5	0	0	0	0	412	
6	0	0	0	0	593	
7	0	0	0	0	562	
8	0	0	0	0	372	
9	0	0	0	0	585	
10	0	0	0	0	417	
11	0	0	0	0	584	
12	0	0	0	0	565	
13	0	0	0	0	367	
14	0	0	0	0	587	
15	0	0	0	0	413	
0	0	0	0	0	592	
1	0	0	0	0	567	
2	0	0	0	0	373	
3	0	0	0	0	583	
4	0	0	0	0	418	
5	0	0	0	0	590	
6	0	0	0	0	561	
7	0	0	0	0	372	
8	0	0	0	0	586	
9	0	0	0	0	418	
10	0	0	0	0	584	
11	0	0	0	0	565	
12	0	0	0	0	375	
13	0	0	0	0	581	
14	0	0	0	0	425	
15	0	0	0	0	577	
0	0	0	0	0	564	
1	0	0	0	0	375	
2	0	0	0	0	579	
3	0	0	0	0	432	
4	0	0	0	0	579	
5	0	0	0	0	565	
6	0	0	0	0	370	
7	0	0	0	0	579	
8	0	0	0	0	434	
9	0	0	0	0	579	
10	0	0	0	0	560	
11	0	0	0	0	374	
12	0	0	0	0	589	
13	0	0	0	0	419	
14	0	0	0	0	577	
15	0	0	0	0	564	
0	0	0	0	0	375	
1	0	0	0	0	578	
2	0	0	0	0	429	
3	0	0	0	0	574	
4	0	0	0	0	562	
5	0	0	0	0	376	
6	0	0	0	0	577	
7	0	0	0	0	443	
8	0	0	0	0	576	
9	0	0	0	0	559	
10	0	0	0	0	376	
11	0	0	0	0	579	
12	0	0	0	0	419	
13	0	0	0	0	569	
14	0	0	0	0	557	
15	0	0	0	0	377	
0	0	0	0	0	578	
1	0	0	0	0	430	
2	0	0	0	0	572	
3	0	0	0	0	560	
4	0	0	0	0	376	
5	0	0	0	0	576	
6	0	0	0	0	428	
7	0	0	0	0	568	
8	0	0	0	0	560	
9	0	0	0	0	379	
10	0	0	0	0	577	
11	0	0	0	0	433	
12	0	0	0	0	569	
13	0	0	0	0	561	
14	0	0	0	0	373	
15	0	0	0	0	577	
0	0	0	0	0	429	
1	0	0	0	0	571	
2	0	0	0	0	560	
3	0	0	0	0	377	
4	0	0	0	0	577	
5	0	0	0	0	428	
6	0	0	0	0	560	
7	0	0	0	0	560	
8	0	0	0	0	379	
9	0	0	0	0	579	
10	0	0	0	0	427	
11	0	0	0	0	560	
12	0	0	0	0	558	
13	0	0	0	0	373	
14	0	0	0	0	583	
15	0	0	0	0	428	
0	0	0	0	0	563	
1	0	0	0	0	565	
2	0	0	0	0	380	
3	0	0	0	0	579	
4	0	0	0	0	433	
5	0	0	0	0	563	
6	0	0	0	0	559	
7	0	0	0	0	381	
8	0	0	0	0	580	
9	0	0	0	0	431	
10	0	0	0	0	562	
11	0	0	0	0	563	
12	0	0	0	0	379	
13	0	0	0	0	583	
14	0	0	0	0	434	
15	0	0	0	0	559	
0	0	0	0	0	556	
1	0	0	0	0	381	
2	0	0	0	0	576	
3	0	0	0	0	437	
4	0	0	0	0	557	
5	0	0	0	0	555	
6	0	0	0	0	379	
7	0	0	0	0	579	
8	0	0	0	0	436	
9	0	0	0	0	553	
10	0	0	0	0	559	
11	0	0	0	0	382	
12	0	0	0	0	574	
13	0	0	0	0	438	
14	0	0	0	0	551	
15	0	0	0	0	558	
0	0	0	0	0	380	
1	0	0	0	0	581	
2	0	0	0	0	437	
3	0	0	0	0	549	
4	0	0	0	0	558	
5	0	0	0	0	376	
6	0	0	0	0	574	
7	0	0	0	0	436	
8	0	0	0	0	553	
9	0	0	0	0	561	
10	0	0	0	0	376	
11	0	0	0	0	577	
12	0	0	0	0	446	
13	0	0	0	0	549	
14	0	0	0	0	555	
15	0	0	0	0	376	
0	0	0	0	0	573	
1	0	0	0	0	455	
2	0	0	0	0	550	
3	0	0	0	0	557	
4	0	0	0	0	374	
5	0	0	0	0	571	
6	0	0	0	0	451	
7	0	0	0	0	548	
8	0	0	0	0	556	
9	0	0	0	0	375	
10	0	0	0	0	574	
11	0	0	0	0	449	
12	0	0	0	0	551	
13	0	0	0	0	559	
14	0	0	0	0	374	
15	0	0	0	0	575	
0	0	0	0	0	447	
1	0	0	0	0	545	
2	0	0	0	0	556	
3	0	0	0	0	376	
4	0	0	0	0	576	
5	0	0	0	0	452	
6	0	0	0	0	544	
7	0	0	0	0	554	
8	0	0	0	0	372	
9	0	0	0	0	575	
10	0	0	0	0	448	
11	0	0	0	0	539	
12	0	0	0	0	557	
13	0	0	0	0	372	
14	0	0	0	0	576	
15	0	0	0	0	454	
0	0	0	0	0	544	
1	0	0	0	0	557	
2	0	0	0	0	372	
3	0	0	0	0	569	
4	0	0	0	0	459	
5	0	0	0	0	540	
6	0	0	0	0	557	
7	0	0	0	0	373	
8	0	0	0	0	575	
9	0	0	0	0	461	
10	0	0	0	0	536	
11	0	0	0	0	555	
12	0	0	0	0	374	
13	0	0	0	0	568	
14	0	0	0	0	444	
15	0	0	0	0	536	
0	0	0	0	0	556	
1	0	0	0	0	375	
2	0	0	0	0	577	
3	0	0	0	0	451	
4	0	0	0	0	537	
5	0	0	0	0	559	
6	0	0	0	0	364	
7	0	0	0	0	570	
8	0	0	0	0	454	
9	0	0	0	0	536	
10	0	0	0	0	556	
11	0	0	0	0	367	
12	0	0	0	0	572	
13	0	0	0	0	459	
14	0	0	0	0	536	
15	0	0	0	0	557	
0	0	0	0	0	370	
1	0	0	0	0	572	
2	0	0	0	0	451	
3	0	0	0	0	531	
4	0	0	0	0	557	
5	0	0	0	0	369	
6	0	0	0	0	574	
7	0	0	0	0	457	
8	0	0	0	0	531	
9	0	0	0	0	555	
10	0	0	0	0	365	
11	0	0	0	0	575	
12	0	0	0	0	463	
13	0	0	0	0	529	
14	0	0	0	0	556	
15	0	0	0	0	364	
0	0	0	0	0	575	
1	0	0	0	0	464	
2	0	0	0	0	534	
3	0	0	0	0	558	
4	0	0	0	0	364	
5	0	0	0	0	578	
6	0	0	0	0	456	
7	0	0	0	0	531	
8	0	0	0	0	557	
9	0	0	0	0	370	
10	0	0	0	0	578	
11	0	0	0	0	456	
12	0	0	0	0	526	
13	0	0	0	0	561	
14	0	0	0	0	366	
15	0	0	0	0	575	
0	0	0	0	0	455	
1	0	0	0	0	526	
2	0	0	0	0	554	
3	0	0	0	0	365	
4	0	0	0	0	572	
5	0	0	0	0	455	
6	0	0	0	0	522	
7	0	0	0	0	555	
8	0	0	0	0	364	
9	0	0	0	0	578	
10	0	0	0	0	460	
11	0	0	0	0	524	
12	0	0	0	0	558	
13	0	0	0	0	364	
14	0	0	0	0	571	
15	0	0	0	0	458	
0	0	0	0	0	520	
1	0	0	0	0	559	
2	0	0	0	0	366	
3	0	0	0	0	572	
4	0	0	0	0	469	
5	0	0	0	0	525	
6	0	0	0	0	556	
7	0	0	0	0	372	
8	0	0	0	0	575	
9	0	0	0	0	459	
10	0	0	0	0	525	
11	0	0	0	0	562	
12	0	0	0	0	359	
13	0	0	0	0	575	
14	0	0	0	0	462	
15	0	0	0	0	524	
0	0	0	0	0	560	
1	0	0	0	0	364	
2	0	0	0	0	578	
3	0	0	0	0	463	
4	0	0	0	0	516	
5	0	0	0	0	559	
6	0	0	0	0	363	
7	0	0	0	0	575	
8	0	0	0	0	463	
9	0	0	0	0	519	
10	0	0	0	0	556	
11	0	0	0	0	365	
12	0	0	0	0	578	
13	0	0	0	0	463	
14	0	0	0	0	515	
15	0	0	0	0	554	
0	0	0	0	0	354	
1	0	0	0	0	573	
2	0	0	0	0	470	
3	0	0	0	0	517	
4	0	0	0	0	559	
5	0	0	0	0	360	
6	0	0	0	0	574	
7	0	0	0	0	473	
8	0	0	0	0	515	
9	0	0	0	0	558	
10	0	0	0	0	355	
11	0	0	0	0	569	
12	0	0	0	0	472	
13	0	0	0	0	525	
14	0	0	0	0	556	
15	0	0	0	0	359	
0	0	0	0	0	571	
1	0	0	0	0	471	
2	0	0	0	0	512	
3	0	0	0	0	551	
4	0	0	0	0	357	
5	0	0	0	0	575	
6	0	0	0	0	475	
7	0	0	0	0	512	
8	0	0	0	0	554	
9	0	0	0	0	356	
10	0	0	0	0	574	
11	0	0	0	0	476	
12	0	0	0	0	508	
13	0	0	0	0	555	
14	0	0	0	0	356	
15	0	0	0	0	575	
0	0	0	0	0	474	
1	0	0	0	0	505	
2	0	0	0	0	563	
3	0	0	0	0	353	
4	0	0	0	0	574	
5	0	0	0	0	481	
6	0	0	0	0	504	
7	0	0	0	0	550	
8	0	0	0	0	353	
9	0	0	0	0	569	
10	0	0	0	0	486	
11	0	0	0	0	509	
12	0	0	0	0	551	
13	0	0	0	0	369	
14	0	0	0	0	573	
15	0	0	0	0	475	
0	0	0	0	0	503	
1	0	0	0	0	556	
2	0	0	0	0	374	
3	0	0	0	0	562	
4	0	0	0	0	486	
5	0	0	0	0	507	
6	0	0	0	0	552	
7	0	0	0	0	369	
8	0	0	0	0	567	
9	0	0	0	0	476	
10	0	0	0	0	527	
11	0	0	0	0	563	
12	0	0	0	0	345	
13	0	0	0	0	581	
14	0	0	0	0	471	
15	0	0	0	0	524	
0	0	0	0	0	560	
1	0	0	0	0	349	
2	0	0	0	0	578	
3	0	0	0	0	455	
4	0	0	0	0	514	
5	0	0	0	0	547	
6	0	0	0	0	362	
7	0	0	0	0	583	
8	0	0	0	0	462	
9	0	0	0	0	515	
10	0	0	0	0	558	
11	0	0	0	0	364	
12	0	0	0	0	577	
13	0	0	0	0	473	
14	0	0	0	0	515	
15	0	0	0	0	547	
0	0	0	0	0	374	
1	0	0	0	0	560	
2	0	0	0	0	495	
3	0	0	0	0	498	
4	0	0	0	0	542	
5	0	0	0	0	377	
6	0	0	0	0	575	
7	0	0	0	0	463	
8	0	0	0	0	515	
9	0	0	0	0	545	
10	0	0	0	0	391	
11	0	0	0	0	568	
12	0	0	0	0	471	
13	0	0	0	0	506	
14	0	0	0	0	558	
15	0	0	0	0	395	
0	0	0	0	0	550	
1	0	0	0	0	482	
2	0	0	0	0	497	
3	0	0	0	0	546	
4	0	0	0	0	402	
5	0	0	0	0	540	
6	0	0	0	0	486	
7	0	0	0	0	510	
8	0	0	0	0	526	
9	0	0	0	0	414	
10	0	0	0	0	544	
11	0	0	0	0	486	
12	0	0	0	0	505	
13	0	0	0	0	526	
14	0	0	0	0	379	
15	0	0	0	0	580	
0	0	0	0	0	441	
1	0	0	0	0	518	
2	0	0	0	0	535	
3	0	0	0	0	425	
4	0	0	0	0	546	
5	0	0	0	0	486	
6	0	0	0	0	503	
7	0	0	0	0	535	
8	0	0	0	0	424	
9	0	0	0	0	543	
10	0	0	0	0	492	
11	0	0	0	0	500	
12	0	0	0	0	535	
13	0	0	0	0	408	
14	0	0	0	0	559	
15	0	0	0	0	480	
0	0	0	0	0	503	
1	0	0	0	0	542	
2	0	0	0	0	395	
3	0	0	0	0	567	
4	0	0	0	0	485	
5	0	0	0	0	495	
6	0	0	0	0	546	
7	0	0	0	0	387	
8	0	0	0	0	569	
9	0	0	0	0	487	
10	0	0	0	0	495	
11	0	0	0	0	547	
12	0	0	0	0	388	
13	0	0	0	0	566	
14	0	0	0	0	483	
15	0	0	0	0	496	
0	0	0	0	0	543	
1	0	0	0	0	386	
2	0	0	0	0	564	
3	0	0	0	0	489	
4	0	0	0	0	492	
5	0	0	0	0	546	
6	0	0	0	0	384	
7	0	0	0	0	569	
8	0	0	0	0	491	
9	0	0	0	0	495	
10	0	0	0	0	547	
11	0	0	0	0	384	
12	0	0	0	0	566	
13	0	0	0	0	489	
14	0	0	0	0	491	
15	0	0	0	0	544	
0	0	0	0	0	390	
1	0	0	0	0	561	
2	0	0	0	0	497	
3	0	0	0	0	486	
4	0	0	0	0	551	
5	0	0	0	0	390	
6	0	0	0	0	547	
7	0	0	0	0	520	
8	0	0	0	0	480	
9	0	0	0	0	536	
10	0	0	0	0	408	
11	0	0	0	0	560	
12	0	0	0	0	491	
13	0	0	0	0	489	
14	0	0	0	0	539	
15	0	0	0	0	403	
0	0	0	0	0	556	
1	0	0	0	0	496	
2	0	0	0	0	492	
3	0	0	0	0	537	
4	0	0	0	0	387	
5	0	0	0	0	554	
6	0	0	0	0	511	
7	0	0	0	0	483	
8	0	0	0	0	542	
9	0	0	0	0	400	
10	0	0	0	0	566	
11	0	0	0	0	509	
12	0	0	0	0	481	
13	0	0	0	0	540	
14	0	0	0	0	399	
15	0	0	0	0	563	
0	0	0	0	0	497	
1	0	0	0	0	493	
2	0	0	0	0	543	
3	0	0	0	0	398	
4	0	0	0	0	568	
5	0	0	0	0	501	
6	0	0	0	0	483	
7	0	0	0	0	544	
8	0	0	0	0	396	
9	0	0	0	0	570	
10	0	0	0	0	493	
11	0	0	0	0	468	
12	0	0	0	0	548	
13	0	0	0	0	403	
14	0	0	0	0	560	
15	0	0	0	0	497	
0	0	0	0	0	479	
1	0	0	0	0	551	
2	0	0	0	0	397	
3	0	0	0	0	574	
4	0	0	0	0	499	
5	0	0	0	0	485	
6	0	0	0	0	545	
7	0	0	0	0	392	
8	0	0	0	0	571	
9	0	0	0	0	506	
10	0	0	0	0	480	
11	0	0	0	0	557	
12	0	0	0	0	388	
13	0	0	0	0	577	
14	0	0	0	0	500	
15	0	0	0	0	479	
0	0	0	0	0	547	
1	0	0	0	0	388	
2	0	0	0	0	582	
3	0	0	0	0	505	
4	0	0	0	0	475	
5	0	0	0	0	544	
6	0	0	0	0	401	
7	0	0	0	0	575	
8	0	0	0	0	496	
9	0	0	0	0	479	
10	0	0	0	0	547	
11	0	0	0	0	383	
12	0	0	0	0	575	
13	0	0	0	0	495	
14	0	0	0	0	477	
15	0	0	0	0	546	
0	0	0	0	0	388	
1	0	0	0	0	580	
2	0	0	0	0	496	
3	0	0	0	0	484	
4	0	0	0	0	546	
5	0	0	0	0	374	
6	0	0	0	0	588	
7	0	0	0	0	502	
8	0	0	0	0	476	
9	0	0	0	0	551	
10	0	0	0	0	402	
11	0	0	0	0	583	
12	0	0	0	0	496	
13	0	0	0	0	472	
14	0	0	0	0	558	
15	0	0	0	0	368	
0	0	0	0	0	597	
1	0	0	0	0	506	
2	0	0	0	0	459	
3	0	0	0	0	556	
4	0	0	0	0	378	
5	0	0	0	0	587	
6	0	0	0	0	509	
7	0	0	0	0	464	
8	0	0	0	0	558	
9	0	0	0	0	373	
10	0	0	0	0	592	
11	0	0	0	0	506	
12	0	0	0	0	463	
13	0	0	0	0	563	
14	0	0	0	0	387	
15	0	0	0	0	585	
0	0	0	0	0	492	
1	0	0	0	0	470	
2	0	0	0	0	558	
3	0	0	0	0	368	
4	0	0	0	0	593	
5	0	0	0	0	502	
6	0	0	0	0	472	
7	0	0	0	0	558	
8	0	0	0	0	371	
9	0	0	0	0	592	
10	0	0	0	0	522	
11	0	0	0	0	457	
12	0	0	0	0	570	
13	0	0	0	0	368	
14	0	0	0	0	597	
15	0	0	0	0	514	
0	0	0	0	0	460	
1	0	0	0	0	556	
2	0	0	0	0	364	
3	0	0	0	0	621	
4	0	0	0	0	498	
5	0	0	0	0	464	
6	0	0	0	0	562	
7	0	0	0	0	353	
8	0	0	0	0	627	
9	0	0	0	0	490	
10	0	0	0	0	476	
11	0	0	0	0	560	
12	0	0	0	0	359	
13	0	0	0	0	620	
14	0	0	0	0	511	
15	0	0	0	0	467	
0	0	0	0	0	562	
1	0	0	0	0	368	
2	0	0	0	0	617	
3	0	0	0	0	519	
4	0	0	0	0	454	
5	0	0	0	0	559	
6	0	0	0	0	362	
7	0	0	0	0	623	
8	0	0	0	0	516	
9	0	0	0	0	455	
10	0	0	0	0	570	
11	0	0	0	0	356	
12	0	0	0	0	626	
13	0	0	0	0	521	
14	0	0	0	0	451	
15	0	0	0	0	556	
0	0	0	0	0	359	
1	0	0	0	0	621	
2	0	0	0	0	514	
3	0	0	0	0	453	
4	0	0	0	0	567	
5	0	0	0	0	358	
6	0	0	0	0	623	
7	0	0	0	0	512	
8	0	0	0	0	459	
9	0	0	0	0	564	
10	0	0	0	0	369	
11	0	0	0	0	620	
12	0	0	0	0	524	
13	0	0	0	0	451	
14	0	0	0	0	565	
15	0	0	0	0	360	
0	0	0	0	0	611	
1	0	0	0	0	515	
2	0	0	0	0	458	
3	0	0	0	0	574	
4	0	0	0	0	375	
5	0	0	0	0	608	
6	0	0	0	0	524	
7	0	0	0	0	467	
8	0	0	0	0	572	
9	0	0	0	0	387	
10	0	0	0	0	613	
11	0	0	0	0	517	
12	0	0	0	0	443	
13	0	0	0	0	564	
14	0	0	0	0	368	
15	0	0	0	0	631	
0	0	0	0	0	520	
1	0	0	0	0	443	
2	0	0	0	0	560	
3	0	0	0	0	380	
4	0	0	0	0	614	
5	0	0	0	0	534	
6	0	0	0	0	442	
7	0	0	0	0	561	
8	0	0	0	0	387	
9	0	0	0	0	612	
10	0	0	0	0	531	
11	0	0	0	0	443	
12	0	0	0	0	561	
13	0	0	0	0	380	
14	0	0	0	0	608	
15	0	0	0	0	522	
0	0	0	0	0	444	
1	0	0	0	0	564	
2	0	0	0	0	371	
3	0	0	0	0	619	
4	0	0	0	0	524	
5	0	0	0	0	450	
6	0	0	0	0	564	
7	0	0	0	0	378	
8	0	0	0	0	621	
9	0	0	0	0	527	
10	0	0	0	0	456	
11	0	0	0	0	555	
12	0	0	0	0	392	
13	0	0	0	0	607	
14	0	0	0	0	543	
15	0	0	0	0	451	
0	0	0	0	0	563	
1	0	0	0	0	375	
2	0	0	0	0	618	
3	0	0	0	0	523	
4	0	0	0	0	457	
5	0	0	0	0	564	
6	0	0	0	0	384	
7	0	0	0	0	610	
8	0	0	0	0	529	
9	0	0	0	0	448	
10	0	0	0	0	573	
11	0	0	0	0	389	
12	0	0	0	0	609	
13	0	0	0	0	535	
14	0	0	0	0	442	
15	0	0	0	0	578	
0	0	0	0	0	384	
1	0	0	0	0	621	
2	0	0	0	0	525	
3	0	0	0	0	447	
4	0	0	0	0	572	
5	0	0	0	0	383	
6	0	0	0	0	619	
7	0	0	0	0	528	
8	0	0	0	0	439	
9	0	0	0	0	575	
10	0	0	0	0	391	
11	0	0	0	0	610	
12	0	0	0	0	528	
13	0	0	0	0	448	
14	0	0	0	0	566	
15	0	0	0	0	391	
0	0	0	0	0	615	
1	0	0	0	0	536	
2	0	0	0	0	443	
3	0	0	0	0	572	
4	0	0	0	0	386	
5	0	0	0	0	611	
6	0	0	0	0	536	
7	0	0	0	0	442	
8	0	0	0	0	551	
9	0	0	0	0	429	
10	0	0	0	0	606	
11	0	0	0	0	527	
12	0	0	0	0	437	
13	0	0	0	0	571	
14	0	0	0	0	398	
15	0	0	0	0	632	
0	0	0	0	0	547	
1	0	0	0	0	431	
2	0	0	0	0	580	
3	0	0	0	0	382	
4	0	0	0	0	623	
5	0	0	0	0	537	
6	0	0	0	0	454	
7	0	0	0	0	564	
8	0	0	0	0	388	
9	0	0	0	0	618	
10	0	0	0	0	543	
11	0	0	0	0	434	
12	0	0	0	0	574	
13	0	0	0	0	393	
14	0	0	0	0	621	
15	0	0	0	0	535	
0	0	0	0	0	448	
1	0	0	0	0	556	
2	0	0	0	0	453	
3	0	0	0	0	603	
4	0	0	0	0	532	
5	0	0	0	0	422	
6	0	0	0	0	585	
7	0	0	0	0	400	
8	0	0	0	0	625	
9	0	0	0	0	559	
10	0	0	0	0	433	
11	0	0	0	0	549	
12	0	0	0	0	434	
13	0	0	0	0	555	
14	0	0	0	0	642	
15	0	0	0	0	384	
0	0	0	0	0	567	
1	0	0	0	0	364	
2	0	0	0	0	642	
3	0	0	0	0	422	
4	0	0	0	0	606	
5	0	0	0	0	602	
6	0	0	0	0	332	
7	0	0	0	0	618	
8	0	0	0	0	495	
9	0	0	0	0	571	
10	0	0	0	0	489	
11	0	0	0	0	495	
12	0	0	0	0	548	
13	0	0	0	0	545	
14	0	0	0	0	483	
15	0	0	0	0	607	
0	0	0	0	0	391	
1	0	0	0	0	599	
2	0	0	0	0	572	
3	0	0	0	0	395	
4	0	0	0	0	655	
5	0	0	0	0	275	
6	0	0	0	0	656	
7	0	0	0	0	738	
8	0	0	0	0	109	
9	0	0	0	0	728	
10	0	0	0	0	265	
11	0	0	0	0	686	
12	0	0	0	0	487	
13	0	0	0	0	231	
14	0	0	0	0	658	
15	0	0	0	0	307	
0	0	0	0	0	782	
1	0	0	0	0	512	
2	0	0	0	0	308	
3	0	0	0	0	586	
4	0	0	0	0	426	
5	0	0	0	0	665	
6	0	0	0	0	365	
7	0	0	0	0	505	
8	0	0	0	0	930	
9	0	0	0	0	231	
10	0	0	0	0	597	
11	0	0	0	0	743	
12	0	0	0	0	339	
13	0	0	0	0	661	
14	0	0	0	0	420	
15	0	0	0	0	595	
0	0	0	0	0	630	
1	0	0	0	0	405	
2	0	0	0	0	564	
3	0	0	0	0	349	
4	0	0	0	0	606	
5	0	0	0	0	381	
6	0	0	0	0	437	
7	0	0	0	0	443	
8	0	0	0	0	314	
9	0	0	0	0	704	
10	0	0	0	0	655	
11	0	0	0	0	441	
12	0	0	0	0	648	
13	0	0	0	0	208	
14	0	0	0	0	536	
15	0	0	0	0	548	
0	0	0	0	0	523	
1	0	0	0	0	611	
2	0	0	0	0	391	
3	0	0	0	0	508	
4	0	0	0	0	465	
5	0	0	0	0	590	
6	0	0	0	0	453	
7	0	0	0	0	478	
8	0	0	0	0	655	
9	0	0	0	0	413	
10	0	0	0	0	481	
11	0	0	0	0	593	
12	0	0	0	0	315	
13	0	0	0	0	563	
14	0	0	0	0	390	
15	0	0	0	0	414	
0	0	0	0	0	500	
1	0	0	0	0	420	
2	0	0	0	0	598	
3	0	0	0	0	482	
4	0	0	0	0	592	
5	0	0	0	0	429	
6	0	0	0	0	562	
7	0	0	0	0	585	
8	0	0	0	0	582	
9	0	0	0	0	391	
10	0	0	0	0	444	
11	0	0	0	0	481	
12	0	0	0	0	541	
13	0	0	0	0	662	
14	0	0	0	0	249	
15	0	0	0	0	661	
0	0	0	0	0	172	
1	0	0	0	0	664	
2	0	0	0	0	617	
3	0	0	0	0	348	
4	0	0	0	0	425	
5	0	0	0	0	414	
6	0	0	0	0	557	
7	0	0	0	0	525	
8	0	0	0	0	430	
9	0	0	0	0	696	
10	0	0	0	0	375	
11	0	0	0	0	382	
12	0	0	0	0	693	
13	0	0	0	0	414	
14	0	0	0	0	631	
15	0	0	0	0	376	
0	0	0	0	0	535	
1	0	0	0	0	491	
2	0	0	0	0	329	
3	0	0	0	0	734	
4	0	0	0	0	227	
5	0	0	0	0	633	
6	0	0	0	0	424	
7	0	0	0	0	551	
8	0	0	0	0	753	
9	0	0	0	0	225	
10	0	0	0	0	723	
11	0	0	0	0	723	
12	0	0	0	0	434	
13	0	0	0	0	663	
14	0	0	0	0	366	
15	0	0	0	0	494	
0	0	0	0	0	425	
1	0	0	0	0	553	
2	0	0	0	0	299	
3	0	0	0	0	281	
4	0	0	0	0	613	
5	0	0	0	0	440	
6	0	0	0	0	328	
7	0	0	0	0	668	
8	0	0	0	0	490	
9	0	0	0	0	731	
10	0	0	0	0	540	
11	0	0	0	0	298	
12	0	0	0	0	974	
13	0	0	0	0	267	
14	0	0	0	0	657	
15	0	0	0	0	836	
0	0	0	0	0	259	
1	0	0	0	0	649	
2	0	0	0	0	350	
3	0	0	0	0	747	
4	0	0	0	0	609	
5	0	0	0	0	659	
6	0	0	0	0	406	
7	0	0	0	0	245	
8	0	0	0	0	926	
9	0	0	0	0	425	
10	0	0	0	0	495	
11	0	0	0	0	663	
12	0	0	0	0	408	
13	0	0	0	0	826	
14	0	0	0	0	392	
15	0	0	0	0	546	
0	0	0	0	0	423	
1	0	0	0	0	365	
2	0	0	0	0	588	
3	0	0	0	0	759	
4	0	0	0	0	448	
5	0	0	0	0	714	
6	0	0	0	0	321	
7	0	0	0	0	575	
8	0	0	0	0	375	
9	0	0	0	0	539	
10	0	0	0	0	445	
11	0	0	0	0	458	
12	0	0	0	0	485	
13	0	0	0	0	519	
14	0	0	0	0	257	
15	0	0	0	0	558	
0	0	0	0	0	282	
1	0	0	0	0	523	
2	0	0	0	0	401	
3	0	0	0	0	517	
4	0	0	0	0	521	
5	0	0	0	0	513	
6	0	0	0	0	726	
7	0	0	0	0	495	
8	0	0	0	0	439	
9	0	0	0	0	609	
10	0	0	0	0	389	
11	0	0	0	0	568	
12	0	0	0	0	569	
13	0	0	0	0	235	
14	0	0	0	0	431	
15	0	0	0	0	276	
0	0	0	0	0	700	
1	0	0	0	0	682	
2	0	0	0	0	319	
3	0	0	0	0	547	
4	0	0	0	0	387	
5	0	0	0	0	573	
6	0	0	0	0	499	
7	0	0	0	0	369	
8	0	0	0	0	582	
9	0	0	0	0	413	
10	0	0	0	0	568	
11	0	0	0	0	498	
12	0	0	0	0	380	
13	0	0	0	0	510	
14	0	0	0	0	601	
15	0	0	0	0	504	
0	0	0	0	0	500	
1	0	0	0	0	397	
2	0	0	0	0	575	
3	0	0	0	0	457	
4	0	0	0	0	674	
5	0	0	0	0	480	
6	0	0	0	0	543	
7	0	0	0	0	499	
8	0	0	0	0	431	
9	0	0	0	0	630	
10	0	0	0	0	508	
11	0	0	0	0	507	
12	0	0	0	0	552	
13	0	0	0	0	262	
14	0	0	0	0	708	
15	0	0	0	0	516	
0	0	0	0	0	453	
1	0	0	0	0	575	
2	0	0	0	0	327	
3	0	0	0	0	687	
4	0	0	0	0	485	
5	0	0	0	0	438	
6	0	0	0	0	544	
7	0	0	0	0	368	
8	0	0	0	0	645	
9	0	0	0	0	529	
10	0	0	0	0	423	
11	0	0	0	0	608	
12	0	0	0	0	327	
13	0	0	0	0	644	
14	0	0	0	0	550	
15	0	0	0	0	409	
0	0	0	0	0	557	
1	0	0	0	0	382	
2	0	0	0	0	650	
3	0	0	0	0	516	
4	0	0	0	0	351	
5	0	0	0	0	721	
6	0	0	0	0	335	
7	0	0	0	0	694	
8	0	0	0	0	506	
9	0	0	0	0	400	
10	0	0	0	0	602	
11	0	0	0	0	342	
12	0	0	0	0	655	
13	0	0	0	0	587	
14	0	0	0	0	386	
15	0	0	0	0	605	
0	0	0	0	0	343	
1	0	0	0	0	649	
2	0	0	0	0	526	
3	0	0	0	0	433	
4	0	0	0	0	611	
5	0	0	0	0	320	
6	0	0	0	0	688	
7	0	0	0	0	484	
8	0	0	0	0	473	
9	0	0	0	0	591	
10	0	0	0	0	335	
11	0	0	0	0	647	
12	0	0	0	0	543	
13	0	0	0	0	376	
14	0	0	0	0	579	
15	0	0	0	0	371	
0	0	0	0	0	617	
1	0	0	0	0	540	
2	0	0	0	0	402	
3	0	0	0	0	595	
4	0	0	0	0	352	
5	0	0	0	0	649	
6	0	0	0	0	514	
7	0	0	0	0	421	
8	0	0	0	0	580	
9	0	0	0	0	364	
10	0	0	0	0	653	
11	0	0	0	0	527	
12	0	0	0	0	409	
13	0	0	0	0	581	
14	0	0	0	0	363	
15	0	0	0	0	632	
0	0	0	0	0	565	
1	0	0	0	0	401	
2	0	0	0	0	559	
3	0	0	0	0	402	
4	0	0	0	0	629	
5	0	0	0	0	541	
6	0	0	0	0	410	
7	0	0	0	0	577	
8	0	0	0	0	387	
9	0	0	0	0	645	
10	0	0	0	0	540	
11	0	0	0	0	408	
12	0	0	0	0	590	
13	0	0	0	0	395	
14	0	0	0	0	633	
15	0	0	0	0	500	
0	0	0	0	0	406	
1	0	0	0	0	556	
2	0	0	0	0	399	
3	0	0	0	0	621	
4	0	0	0	0	533	
5	0	0	0	0	406	
6	0	0	0	0	593	
7	0	0	0	0	366	
8	0	0	0	0	645	
9	0	0	0	0	531	
10	0	0	0	0	403	
11	0	0	0	0	593	
12	0	0	0	0	377	
13	0	0	0	0	631	
14	0	0	0	0	543	
15	0	0	0	0	390	
0	0	0	0	0	583	
1	0	0	0	0	396	
2	0	0	0	0	613	
3	0	0	0	0	553	
4	0	0	0	0	389	
5	0	0	0	0	580	
6	0	0	0	0	391	
7	0	0	0	0	604	
8	0	0	0	0	543	
9	0	0	0	0	408	
10	0	0	0	0	579	
11	0	0	0	0	400	
12	0	0	0	0	607	
13	0	0	0	0	553	
14	0	0	0	0	401	
15	0	0	0	0	583	
0	0	0	0	0	402	
1	0	0	0	0	606	
2	0	0	0	0	565	
3	0	0	0	0	382	
4	0	0	0	0	577	
5	0	0	0	0	425	
6	0	0	0	0	605	
7	0	0	0	0	555	
8	0	0	0	0	390	
9	0	0	0	0	579	
10	0	0	0	0	445	
11	0	0	0	0	579	
12	0	0	0	0	548	
13	0	0	0	0	398	
14	0	0	0	0	595	
15	0	0	0	0	398	
0	0	0	0	0	608	
1	0	0	0	0	554	
2	0	0	0	0	398	
3	0	0	0	0	584	
4	0	0	0	0	400	
5	0	0	0	0	597	
6	0	0	0	0	548	
7	0	0	0	0	392	
8	0	0	0	0	579	
9	0	0	0	0	401	
10	0	0	0	0	601	
11	0	0	0	0	553	
12	0	0	0	0	388	
13	0	0	0	0	580	
14	0	0	0	0	412	
15	0	0	0	0	603	
0	0	0	0	0	566	
1	0	0	0	0	397	
2	0	0	0	0	580	
3	0	0	0	0	394	
4	0	0	0	0	604	
5	0	0	0	0	560	
6	0	0	0	0	393	
7	0	0	0	0	578	
8	0	0	0	0	387	
9	0	0	0	0	585	
10	0	0	0	0	561	
11	0	0	0	0	398	
12	0	0	0	0	582	
13	0	0	0	0	401	
14	0	0	0	0	605	
15	0	0	0	0	560	
0	0	0	0	0	388	
1	0	0	0	0	585	
2	0	0	0	0	406	
3	0	0	0	0	600	
4	0	0	0	0	555	
5	0	0	0	0	389	
6	0	0	0	0	579	
7	0	0	0	0	416	
8	0	0	0	0	601	
9	0	0	0	0	555	
10	0	0	0	0	396	
11	0	0	0	0	580	
12	0	0	0	0	406	
13	0	0	0	0	597	
14	0	0	0	0	546	
15	0	0	0	0	392	
0	0	0	0	0	585	
1	0	0	0	0	405	
2	0	0	0	0	597	
3	0	0	0	0	565	
4	0	0	0	0	385	
5	0	0	0	0	582	
6	0	0	0	0	414	
7	0	0	0	0	606	
8	0	0	0	0	548	
9	0	0	0	0	390	
10	0	0	0	0	576	
11	0	0	0	0	403	
12	0	0	0	0	596	
13	0	0	0	0	553	
14	0	0	0	0	386	
15	0	0	0	0	579	
0	0	0	0	0	420	
1	0	0	0	0	603	
2	0	0	0	0	576	
3	0	0	0	0	374	
4	0	0	0	0	577	
5	0	0	0	0	422	
6	0	0	0	0	579	
7	0	0	0	0	564	
8	0	0	0	0	392	
9	0	0	0	0	548	
10	0	0	0	0	443	
11	0	0	0	0	583	
12	0	0	0	0	557	
13	0	0	0	0	352	
14	0	0	0	0	575	
15	0	0	0	0	461	
0	0	0	0	0	572	
1	0	0	0	0	504	
2	0	0	0	0	402	
3	0	0	0	0	559	
4	0	0	0	0	375	
5	0	0	0	0	611	
6	0	0	0	0	520	
7	0	0	0	0	380	
8	0	0	0	0	454	
9	0	0	0	0	514	
10	0	0	0	0	607	
11	0	0	0	0	428	
12	0	0	0	0	520	
13	0	0	0	0	648	
14	0	0	0	0	407	
15	0	0	0	0	544	
0	0	0	0	0	629	
1	0	0	0	0	216	
2	0	0	0	0	910	
3	0	0	0	0	507	
4	0	0	0	0	468	
5	0	0	0	0	457	
6	0	0	0	0	359	
7	0	0	0	0	672	
8	0	0	0	0	459	
9	0	0	0	0	740	
10	0	0	0	0	467	
11	0	0	0	0	450	
12	0	0	0	0	622	
13	0	0	0	0	411	
14	0	0	0	0	631	
15	0	0	0	0	468	
0	0	0	0	0	554	
1	0	0	0	0	429	
2	0	0	0	0	563	
3	0	0	0	0	521	
4	0	0	0	0	591	
5	0	0	0	0	432	
6	0	0	0	0	391	
7	0	0	0	0	500	
8	0	0	0	0	720	
9	0	0	0	0	476	
10	0	0	0	0	574	
11	0	0	0	0	592	
12	0	0	0	0	282	
13	0	0	0	0	824	
14	0	0	0	0	363	
15	0	0	0	0	697	
0	0	0	0	0	377	
1	0	0	0	0	527	
2	0	0	0	0	611	
3	0	0	0	0	401	
4	0	0	0	0	467	
5	0	0	0	0	502	
6	0	0	0	0	620	
7	0	0	0	0	486	
8	0	0	0	0	511	
9	0	0	0	0	611	
10	0	0	0	0	439	
11	0	0	0	0	371	
12	0	0	0	0	536	
13	0	0	0	0	380	
14	0	0	0	0	419	
15	0	0	0	0	559	
0	0	0	0	0	628	
1	0	0	0	0	639	
2	0	0	0	0	595	
3	0	0	0	0	395	
4	0	0	0	0	480	
5	0	0	0	0	340	
6	0	0	0	0	576	
7	0	0	0	0	684	
8	0	0	0	0	478	
9	0	0	0	0	451	
10	0	0	0	0	454	
11	0	0	0	0	403	
12	0	0	0	0	592	
13	0	0	0	0	525	
14	0	0	0	0	536	
15	0	0	0	0	537	
0	0	0	0	0	466	
1	0	0	0	0	594	
2	0	0	0	0	195	
3	0	0	0	0	735	
4	0	0	0	0	438	
5	0	0	0	0	727	
6	0	0	0	0	506	
7	0	0	0	0	468	
8	0	0	0	0	519	
9	0	0	0	0	495	
10	0	0	0	0	483	
11	0	0	0	0	844	
12	0	0	0	0	420	
13	0	0	0	0	792	
14	0	0	0	0	591	
15	0	0	0	0	445	
0	0	0	0	0	529	
1	0	0	0	0	251	
2	0	0	0	0	796	
3	0	0	0	0	504	
4	0	0	0	0	870	
5	0	0	0	0	597	
6	0	0	0	0	621	
7	0	0	0	0	467	
8	0	0	0	0	611	
9	0	0	0	0	632	
10	0	0	0	0	559	
11	0	0	0	0	248	
12	0	0	0	0	756	
13	0	0	0	0	158	
14	0	0	0	0	432	
15	0	0	0	0	489	
0	0	0	0	0	590	
1	0	0	0	0	539	
2	0	0	0	0	696	
3	0	0	0	0	509	
4	0	0	0	0	389	
5	0	0	0	0	332	
6	0	0	0	0	551	
7	0	0	0	0	664	
8	0	0	0	0	809	
9	0	0	0	0	491	
10	0	0	0	0	418	
11	0	0	0	0	430	
12	0	0	0	0	576	
13	0	0	0	0	507	
14	0	0	0	0	688	
15	0	0	0	0	261	
0	0	0	0	0	561	
1	0	0	0	0	596	
2	0	0	0	0	380	
3	0	0	0	0	380	
4	0	0	0	0	408	
5	0	0	0	0	553	
6	0	0	0	0	600	
7	0	0	0	0	601	
8	0	0	0	0	608	
9	0	0	0	0	703	
10	0	0	0	0	454	
11	0	0	0	0	468	
12	0	0	0	0	583	
13	0	0	0	0	483	
14	0	0	0	0	351	
15	0	0	0	0	656	
0	0	0	0	0	337	
1	0	0	0	0	651	
2	0	0	0	0	668	
3	0	0	0	0	552	
4	0	0	0	0	638	
5	0	0	0	0	379	
6	0	0	0	0	673	
7	0	0	0	0	486	
8	0	0	0	0	423	
9	0	0	0	0	601	
10	0	0	0	0	353	
11	0	0	0	0	495	
12	0	0	0	0	669	
13	0	0	0	0	380	
14	0	0	0	0	489	
15	0	0	0	0	464	
0	0	0	0	0	706	
1	0	0	0	0	677	
2	0	0	0	0	410	
3	0	0	0	0	609	
4	0	0	0	0	386	
5	0	0	0	0	598	
6	0	0	0	0	637	
7	0	0	0	0	426	
8	0	0	0	0	605	
9	0	0	0	0	342	
10	0	0	0	0	755	
11	0	0	0	0	472	
12	0	0	0	0	396	
13	0	0	0	0	576	
14	0	0	0	0	342	
15	0	0	0	0	659	
0	0	0	0	0	557	
1	0	0	0	0	383	
2	0	0	0	0	603	
3	0	0	0	0	355	
4	0	0	0	0	622	
5	0	0	0	0	512	
6	0	0	0	0	502	
7	0	0	0	0	586	
8	0	0	0	0	307	
9	0	0	0	0	682	
10	0	0	0	0	553	
11	0	0	0	0	427	
12	0	0	0	0	609	
13	0	0	0	0	368	
14	0	0	0	0	659	
15	0	0	0	0	480	
0	0	0	0	0	410	
1	0	0	0	0	637	
2	0	0	0	0	337	
3	0	0	0	0	627	
4	0	0	0	0	530	
5	0	0	0	0	431	
6	0	0	0	0	592	
7	0	0	0	0	367	
8	0	0	0	0	705	
9	0	0	0	0	519	
10	0	0	0	0	398	
11	0	0	0	0	565	
12	0	0	0	0	369	
13	0	0	0	0	643	
14	0	0	0	0	531	
15	0	0	0	0	416	
0	0	0	0	0	591	
1	0	0	0	0	383	
2	0	0	0	0	646	
3	0	0	0	0	526	
4	0	0	0	0	426	
5	0	0	0	0	589	
6	0	0	0	0	364	
7	0	0	0	0	658	
8	0	0	0	0	507	
9	0	0	0	0	522	
10	0	0	0	0	565	
11	0	0	0	0	343	
12	0	0	0	0	658	
13	0	0	0	0	524	
14	0	0	0	0	446	
15	0	0	0	0	600	
0	0	0	0	0	371	
1	0	0	0	0	624	
2	0	0	0	0	519	
3	0	0	0	0	440	
4	0	0	0	0	605	
5	0	0	0	0	364	
6	0	0	0	0	636	
7	0	0	0	0	526	
8	0	0	0	0	440	
9	0	0	0	0	584	
10	0	0	0	0	400	
11	0	0	0	0	633	
12	0	0	0	0	530	
13	0	0	0	0	456	
14	0	0	0	0	594	
15	0	0	0	0	380	
0	0	0	0	0	623	
1	0	0	0	0	529	
2	0	0	0	0	441	
3	0	0	0	0	577	
4	0	0	0	0	372	
5	0	0	0	0	658	
6	0	0	0	0	545	
7	0	0	0	0	443	
8	0	0	0	0	568	
9	0	0	0	0	398	
10	0	0	0	0	615	
11	0	0	0	0	538	
12	0	0	0	0	453	
13	0	0	0	0	562	
14	0	0	0	0	398	
15	0	0	0	0	613	
0	0	0	0	0	536	
1	0	0	0	0	440	
2	0	0	0	0	571	
3	0	0	0	0	408	
4	0	0	0	0	609	
5	0	0	0	0	531	
6	0	0	0	0	440	
7	0	0	0	0	568	
8	0	0	0	0	421	
9	0	0	0	0	609	
10	0	0	0	0	539	
11	0	0	0	0	439	
12	0	0	0	0	567	
13	0	0	0	0	410	
14	0	0	0	0	611	
15	0	0	0	0	542	
0	0	0	0	0	440	
1	0	0	0	0	574	
2	0	0	0	0	409	
3	0	0	0	0	620	
4	0	0	0	0	541	
5	0	0	0	0	449	
6	0	0	0	0	567	
7	0	0	0	0	390	
8	0	0	0	0	617	
9	0	0	0	0	534	
10	0	0	0	0	448	
11	0	0	0	0	574	
12	0	0	0	0	364	
13	0	0	0	0	618	
14	0	0	0	0	537	
15	0	0	0	0	446	
0	0	0	0	0	567	
1	0	0	0	0	395	
2	0	0	0	0	621	
3	0	0	0	0	535	
4	0	0	0	0	447	
5	0	0	0	0	567	
6	0	0	0	0	388	
7	0	0	0	0	615	
8	0	0	0	0	536	
9	0	0	0	0	445	
10	0	0	0	0	577	
11	0	0	0	0	396	
12	0	0	0	0	622	
13	0	0	0	0	540	
14	0	0	0	0	470	
15	0	0	0	0	563	
0	0	0	0	0	419	
1	0	0	0	0	600	
2	0	0	0	0	529	
3	0	0	0	0	500	
4	0	0	0	0	521	
5	0	0	0	0	382	
6	0	0	0	0	583	
7	0	0	0	0	586	
8	0	0	0	0	451	
9	0	0	0	0	552	
10	0	0	0	0	382	
11	0	0	0	0	640	
12	0	0	0	0	585	
13	0	0	0	0	403	
14	0	0	0	0	600	
15	0	0	0	0	335	
0	0	0	0	0	707	
1	0	0	0	0	503	
2	0	0	0	0	402	
3	0	0	0	0	586	
4	0	0	0	0	329	
5	0	0	0	0	688	
6	0	0	0	0	474	
7	0	0	0	0	417	
8	0	0	0	0	480	
9	0	0	0	0	502	
10	0	0	0	0	472	
11	0	0	0	0	476	
12	0	0	0	0	468	
13	0	0	0	0	520	
14	0	0	0	0	241	
15	0	0	0	0	589	
0	0	0	0	0	394	
1	0	0	0	0	633	
2	0	0	0	0	651	
3	0	0	0	0	285	
4	0	0	0	0	579	
5	0	0	0	0	470	
6	0	0	0	0	416	
7	0	0	0	0	582	
8	0	0	0	0	355	
9	0	0	0	0	559	
10	0	0	0	0	678	
11	0	0	0	0	408	
12	0	0	0	0	624	
13	0	0	0	0	623	
14	0	0	0	0	358	
15	0	0	0	0	575	
0	0	0	0	0	484	
1	0	0	0	0	746	
2	0	0	0	0	215	
3	0	0	0	0	499	
4	0	0	0	0	346	
5	0	0	0	0	470	
6	0	0	0	0	578	
7	0	0	0	0	295	
8	0	0	0	0	620	
9	0	0	0	0	478	
10	0	0	0	0	408	
11	0	0	0	0	423	
12	0	0	0	0	757	
13	0	0	0	0	193	
14	0	0	0	0	775	
15	0	0	0	0	492	
0	0	0	0	0	538	
1	0	0	0	0	652	
2	0	0	0	0	510	
3	0	0	0	0	402	
4	0	0	0	0	499	
5	0	0	0	0	460	
6	0	0	0	0	475	
7	0	0	0	0	674	
8	0	0	0	0	428	
9	0	0	0	0	240	
10	0	0	0	0	903	
11	0	0	0	0	363	
12	0	0	0	0	437	
13	0	0	0	0	448	
14	0	0	0	0	718	
15	0	0	0	0	509	
0	0	0	0	0	287	
1	0	0	0	0	607	
2	0	0	0	0	377	
3	0	0	0	0	543	
4	0	0	0	0	345	
5	0	0	0	0	629	
6	0	0	0	0	409	
7	0	0	0	0	1022	
8	0	0	0	0	201	
9	0	0	0	0	539	
10	0	0	0	0	313	
11	0	0	0	0	679	
12	0	0	0	0	842	
13	0	0	0	0	213	
14	0	0	0	0	440	
15	0	0	0	0	307	
0	0	0	0	0	731	
1	0	0	0	0	501	
2	0	0	0	0	546	
3	0	0	0	0	794	
4	0	0	0	0	359	
5	0	0	0	0	563	
6	0	0	0	0	633	
7	0	0	0	0	332	
8	0	0	0	0	432	
9	0	0	0	0	498	
10	0	0	0	0	616	
11	0	0	0	0	806	
12	0	0	0	0	204	
13	0	0	0	0	721	
14	0	0	0	0	268	
15	0	0	0	0	527	
0	0	0	0	0	500	
1	0	0	0	0	358	
2	0	0	0	0	479	
3	0	0	0	0	719	
4	0	0	0	0	445	
5	0	0	0	0	500	
6	0	0	0	0	435	
7	0	0	0	0	713	
8	0	0	0	0	448	
9	0	0	0	0	473	
10	0	0	0	0	608	
11	0	0	0	0	352	
12	0	0	0	0	486	
13	0	0	0	0	406	
14	0	0	0	0	556	
15	0	0	0	0	386	
0	0	0	0	0	340	
1	0	0	0	0	749	
2	0	0	0	0	114	
3	0	0	0	0	517	
4	0	0	0	0	563	
5	0	0	0	0	550	
6	0	0	0	0	558	
7	0	0	0	0	284	
8	0	0	0	0	652	
9	0	0	0	0	316	
10	0	0	0	0	504	
11	0	0	0	0	567	
12	0	0	0	0	272	
13	0	0	0	0	595	
14	0	0	0	0	421	
15	0	0	0	0	451	
0	0	0	0	0	580	
1	0	0	0	0	441	
2	0	0	0	0	533	
3	0	0	0	0	481	
4	0	0	0	0	624	
5	0	0	0	0	483	
6	0	0	0	0	416	
7	0	0	0	0	633	
8	0	0	0	0	423	
9	0	0	0	0	468	
10	0	0	0	0	575	
11	0	0	0	0	315	
12	0	0	0	0	679	
13	0	0	0	0	431	
14	0	0	0	0	595	
15	0	0	0	0	462	
0	0	0	0	0	396	
1	0	0	0	0	604	
2	0	0	0	0	399	
3	0	0	0	0	615	
4	0	0	0	0	561	
5	0	0	0	0	422	
6	0	0	0	0	579	
7	0	0	0	0	451	
8	0	0	0	0	540	
9	0	0	0	0	609	
10	0	0	0	0	262	
11	0	0	0	0	547	
12	0	0	0	0	381	
13	0	0	0	0	555	
14	0	0	0	0	534	
15	0	0	0	0	427	
0	0	0	0	0	636	
1	0	0	0	0	415	
2	0	0	0	0	570	
3	0	0	0	0	607	
4	0	0	0	0	369	
5	0	0	0	0	587	
6	0	0	0	0	422	
7	0	0	0	0	589	
8	0	0	0	0	468	
9	0	0	0	0	391	
10	0	0	0	0	580	
11	0	0	0	0	390	
12	0	0	0	0	624	
13	0	0	0	0	531	
14	0	0	0	0	392	
15	0	0	0	0	570	
0	0	0	0	0	405	
1	0	0	0	0	595	
2	0	0	0	0	543	
3	0	0	0	0	392	
4	0	0	0	0	602	
5	0	0	0	0	441	
6	0	0	0	0	598	
7	0	0	0	0	539	
8	0	0	0	0	369	
9	0	0	0	0	596	
10	0	0	0	0	387	
11	0	0	0	0	610	
12	0	0	0	0	536	
13	0	0	0	0	393	
14	0	0	0	0	594	
15	0	0	0	0	370	
0	0	0	0	0	606	
1	0	0	0	0	535	
2	0	0	0	0	405	
3	0	0	0	0	589	
4	0	0	0	0	387	
5	0	0	0	0	615	
6	0	0	0	0	522	
7	0	0	0	0	449	
8	0	0	0	0	564	
9	0	0	0	0	408	
10	0	0	0	0	608	
11	0	0	0	0	527	
12	0	0	0	0	417	
13	0	0	0	0	583	
14	0	0	0	0	379	
15	0	0	0	0	636	
0	0	0	0	0	517	
1	0	0	0	0	392	
2	0	0	0	0	581	
3	0	0	0	0	371	
4	0	0	0	0	625	
5	0	0	0	0	529	
6	0	0	0	0	420	
7	0	0	0	0	606	
8	0	0	0	0	381	
9	0	0	0	0	625	
10	0	0	0	0	507	
11	0	0	0	0	424	
12	0	0	0	0	566	
13	0	0	0	0	416	
14	0	0	0	0	629	
15	0	0	0	0	522	
0	0	0	0	0	432	
1	0	0	0	0	589	
2	0	0	0	0	381	
3	0	0	0	0	635	
4	0	0	0	0	511	
5	0	0	0	0	426	
6	0	0	0	0	572	
7	0	0	0	0	388	
8	0	0	0	0	624	
9	0	0	0	0	521	
10	0	0	0	0	444	
11	0	0	0	0	540	
12	0	0	0	0	434	
13	0	0	0	0	619	
14	0	0	0	0	522	
15	0	0	0	0	432	
0	0	0	0	0	562	
1	0	0	0	0	385	
2	0	0	0	0	632	
3	0	0	0	0	535	
4	0	0	0	0	430	
5	0	0	0	0	563	
6	0	0	0	0	404	
7	0	0	0	0	615	
8	0	0	0	0	536	
9	0	0	0	0	448	
10	0	0	0	0	559	
11	0	0	0	0	406	
12	0	0	0	0	625	
13	0	0	0	0	534	
14	0	0	0	0	450	
15	0	0	0	0	553	
0	0	0	0	0	416	
1	0	0	0	0	625	
2	0	0	0	0	534	
3	0	0	0	0	443	
4	0	0	0	0	564	
5	0	0	0	0	439	
6	0	0	0	0	607	
7	0	0	0	0	537	
8	0	0	0	0	443	
9	0	0	0	0	558	
10	0	0	0	0	419	
11	0	0	0	0	599	
12	0	0	0	0	540	
13	0	0	0	0	444	
14	0	0	0	0	563	
15	0	0	0	0	408	
0	0	0	0	0	624	
1	0	0	0	0	542	
2	0	0	0	0	447	
3	0	0	0	0	563	
4	0	0	0	0	416	
5	0	0	0	0	621	
6	0	0	0	0	531	
7	0	0	0	0	445	
8	0	0	0	0	560	
9	0	0	0	0	405	
10	0	0	0	0	613	
11	0	0	0	0	532	
12	0	0	0	0	451	
13	0	0	0	0	560	
14	0	0	0	0	413	
15	0	0	0	0	607	
0	0	0	0	0	516	
1	0	0	0	0	446	
2	0	0	0	0	575	
3	0	0	0	0	394	
4	0	0	0	0	636	
5	0	0	0	0	517	
6	0	0	0	0	463	
7	0	0	0	0	564	
8	0	0	0	0	393	
9	0	0	0	0	624	
10	0	0	0	0	500	
11	0	0	0	0	578	
12	0	0	0	0	524	
13	0	0	0	0	379	
14	0	0	0	0	611	
15	0	0	0	0	521	
0	0	0	0	0	459	
1	0	0	0	0	562	
2	0	0	0	0	390	
3	0	0	0	0	616	
4	0	0	0	0	526	
5	0	0	0	0	385	
6	0	0	0	0	727	
7	0	0	0	0	331	
8	0	0	0	0	571	
9	0	0	0	0	573	
10	0	0	0	0	453	
11	0	0	0	0	555	
12	0	0	0	0	399	
13	0	0	0	0	589	
14	0	0	0	0	517	
15	0	0	0	0	466	
0	0	0	0	0	454	
1	0	0	0	0	436	
2	0	0	0	0	553	
3	0	0	0	0	484	
4	0	0	0	0	469	
5	0	0	0	0	528	
6	0	0	0	0	345	
7	0	0	0	0	693	
8	0	0	0	0	402	
9	0	0	0	0	633	
10	0	0	0	0	473	
11	0	0	0	0	342	
12	0	0	0	0	557	
13	0	0	0	0	537	
14	0	0	0	0	387	
15	0	0	0	0	692	
0	0	0	0	0	242	
1	0	0	0	0	659	
2	0	0	0	0	450	
3	0	0	0	0	385	
4	0	0	0	0	662	
5	0	0	0	0	293	
6	0	0	0	0	620	
7	0	0	0	0	454	
8	0	0	0	0	572	
9	0	0	0	0	478	
10	0	0	0	0	352	
11	0	0	0	0	667	
12	0	0	0	0	438	
13	0	0	0	0	435	
14	0	0	0	0	775	
15	0	0	0	0	375	
0	0	0	0	0	541	
1	0	0	0	0	687	
2	0	0	0	0	489	
3	0	0	0	0	495	
4	0	0	0	0	446	
5	0	0	0	0	676	
6	0	0	0	0	326	
7	0	0	0	0	660	
8	0	0	0	0	523	
9	0	0	0	0	322	
10	0	0	0	0	597	
11	0	0	0	0	475	
12	0	0	0	0	446	
13	0	0	0	0	472	
14	0	0	0	0	335	
15	0	0	0	0	393	
0	0	0	0	0	547	
1	0	0	0	0	458	
2	0	0	0	0	309	
3	0	0	0	0	281	
4	0	0	0	0	829	
5	0	0	0	0	216	
6	0	0	0	0	749	
7	0	0	0	0	442	
8	0	0	0	0	468	
9	0	0	0	0	448	
10	0	0	0	0	502	
11	0	0	0	0	428	
12	0	0	0	0	617	
13	0	0	0	0	510	
14	0	0	0	0	280	
15	0	0	0	0	673	
0	0	0	0	0	420	
1	0	0	0	0	649	
2	0	0	0	0	334	
3	0	0	0	0	429	
4	0	0	0	0	256	
5	0	0	0	0	455	
6	0	0	0	0	375	
7	0	0	0	0	343	
8	0	0	0	0	754	
9	0	0	0	0	653	
10	0	0	0	0	295	
11	0	0	0	0	729	
12	0	0	0	0	182	
13	0	0	0	0	589	
14	0	0	0	0	208	
15	0	0	0	0	578	
0	0	0	0	0	297	
1	0	0	0	0	596	
2	0	0	0	0	387	
3	0	0	0	0	121	
4	0	0	0	0	546	
5	0	0	0	0	875	
6	0	0	0	0	114	
7	0	0	0	0	634	
8	0	0	0	0	171	
9	0	0	0	0	433	
10	0	0	0	0	448	
11	0	0	0	0	683	
12	0	0	0	0	357	
13	0	0	0	0	601	
14	0	0	0	0	279	
15	0	0	0	0	494	
0	0	0	0	0	203	
1	0	0	0	0	645	
2	0	0	0	0	780	
3	0	0	0	0	299	
4	0	0	0	0	560	
5	0	0	0	0	474	
6	0	0	0	0	406	
7	0	0	0	0	583	
8	0	0	0	0	571	
9	0	0	0	0	710	
10	0	0	0	0	228	
11	0	0	0	0	589	
12	0	0	0	0	596	
13	0	0	0	0	488	
14	0	0	0	0	604	
15	0	0	0	0	293	
0	0	0	0	0	628	
1	0	0	0	0	350	
2	0	0	0	0	555	
3	0	0	0	0	558	
4	0	0	0	0	423	
5	0	0	0	0	514	
6	0	0	0	0	305	
7	0	0	0	0	673	
8	0	0	0	0	439	
9	0	0	0	0	515	
10	0	0	0	0	526	
11	0	0	0	0	448	
12	0	0	0	0	479	
13	0	0	0	0	494	
14	0	0	0	0	296	
15	0	0	0	0	519	
0	0	0	0	0	437	
1	0	0	0	0	509	
2	0	0	0	0	510	
3	0	0	0	0	394	
4	0	0	0	0	518	
5	0	0	0	0	440	
6	0	0	0	0	573	
7	0	0	0	0	538	
8	0	0	0	0	325	
9	0	0	0	0	660	
10	0	0	0	0	405	
11	0	0	0	0	539	
12	0	0	0	0	556	
13	0	0	0	0	406	
14	0	0	0	0	611	
15	0	0	0	0	398	
0	0	0	0	0	600	
1	0	0	0	0	615	
2	0	0	0	0	387	
3	0	0	0	0	583	
4	0	0	0	0	391	
5	0	0	0	0	646	
6	0	0	0	0	533	
7	0	0	0	0	420	
8	0	0	0	0	529	
9	0	0	0	0	449	
10	0	0	0	0	490	
11	0	0	0	0	652	
12	0	0	0	0	389	
13	0	0	0	0	561	
14	0	0	0	0	418	
15	0	0	0	0	606	
0	0	0	0	0	529	
1	0	0	0	0	434	
2	0	0	0	0	526	
3	0	0	0	0	531	
4	0	0	0	0	571	
5	0	0	0	0	533	
6	0	0	0	0	438	
7	0	0	0	0	576	
8	0	0	0	0	393	
9	0	0	0	0	609	
10	0	0	0	0	538	
11	0	0	0	0	389	
12	0	0	0	0	577	
13	0	0	0	0	424	
14	0	0	0	0	581	
15	0	0	0	0	526	
0	0	0	0	0	435	
1	0	0	0	0	549	
2	0	0	0	0	414	
3	0	0	0	0	576	
4	0	0	0	0	559	
5	0	0	0	0	415	
6	0	0	0	0	580	
7	0	0	0	0	410	
8	0	0	0	0	592	
9	0	0	0	0	527	
10	0	0	0	0	440	
11	0	0	0	0	564	
12	0	0	0	0	415	
13	0	0	0	0	597	
14	0	0	0	0	524	
15	0	0	0	0	490	
0	0	0	0	0	534	
1	0	0	0	0	389	
2	0	0	0	0	613	
3	0	0	0	0	513	
4	0	0	0	0	460	
5	0	0	0	0	561	
6	0	0	0	0	416	
7	0	0	0	0	587	
8	0	0	0	0	538	
9	0	0	0	0	432	
10	0	0	0	0	561	
11	0	0	0	0	420	
12	0	0	0	0	595	
13	0	0	0	0	531	
14	0	0	0	0	454	
15	0	0	0	0	574	
0	0	0	0	0	409	
1	0	0	0	0	590	
2	0	0	0	0	536	
3	0	0	0	0	452	
4	0	0	0	0	559	
5	0	0	0	0	421	
6	0	0	0	0	597	
7	0	0	0	0	536	
8	0	0	0	0	448	
9	0	0	0	0	553	
10	0	0	0	0	423	
11	0	0	0	0	595	
12	0	0	0	0	535	
13	0	0	0	0	452	
14	0	0	0	0	554	
15	0	0	0	0	426	
0	0	0	0	0	602	
1	0	0	0	0	533	
2	0	0	0	0	450	
3	0	0	0	0	553	
4	0	0	0	0	419	
5	0	0	0	0	599	
6	0	0	0	0	533	
7	0	0	0	0	451	
8	0	0	0	0	557	
9	0	0	0	0	414	
10	0	0	0	0	609	
11	0	0	0	0	528	
12	0	0	0	0	454	
13	0	0	0	0	557	
14	0	0	0	0	414	
15	0	0	0	0	604	
0	0	0	0	0	529	
1	0	0	0	0	456	
2	0	0	0	0	559	
3	0	0	0	0	408	
4	0	0	0	0	601	
5	0	0	0	0	528	
6	0	0	0	0	450	
7	0	0	0	0	548	
8	0	0	0	0	394	
9	0	0	0	0	601	
10	0	0	0	0	530	
11	0	0	0	0	455	
12	0	0	0	0	556	
13	0	0	0	0	408	
14	0	0	0	0	588	
15	0	0	0	0	525	
0	0	0	0	0	454	
1	0	0	0	0	552	
2	0	0	0	0	408	
3	0	0	0	0	601	
4	0	0	0	0	521	
5	0	0	0	0	457	
6	0	0	0	0	549	
7	0	0	0	0	406	
8	0	0	0	0	597	
9	0	0	0	0	522	
10	0	0	0	0	459	
11	0	0	0	0	548	
12	0	0	0	0	397	
13	0	0	0	0	602	
14	0	0	0	0	525	
15	0	0	0	0	464	
0	0	0	0	0	552	
1	0	0	0	0	405	
2	0	0	0	0	600	
3	0	0	0	0	515	
4	0	0	0	0	467	
5	0	0	0	0	543	
6	0	0	0	0	414	
7	0	0	0	0	595	
8	0	0	0	0	521	
9	0	0	0	0	440	
10	0	0	0	0	582	
11	0	0	0	0	381	
12	0	0	0	0	667	
13	0	0	0	0	421	
14	0	0	0	0	524	
15	0	0	0	0	544	
0	0	0	0	0	359	
1	0	0	0	0	645	
2	0	0	0	0	522	
3	0	0	0	0	453	
4	0	0	0	0	593	
5	0	0	0	0	362	
6	0	0	0	0	641	
7	0	0	0	0	442	
8	0	0	0	0	499	
9	0	0	0	0	552	
10	0	0	0	0	439	
11	0	0	0	0	453	
12	0	0	0	0	609	
13	0	0	0	0	440	
14	0	0	0	0	550	
15	0	0	0	0	415	
0	0	0	0	0	503	
1	0	0	0	0	572	
2	0	0	0	0	501	
3	0	0	0	0	549	
4	0	0	0	0	390	
5	0	0	0	0	664	
6	0	0	0	0	403	
7	0	0	0	0	343	
8	0	0	0	0	651	
9	0	0	0	0	413	
10	0	0	0	0	592	
11	0	0	0	0	520	
12	0	0	0	0	408	
13	0	0	0	0	627	
14	0	0	0	0	408	
15	0	0	0	0	413	
0	0	0	0	0	708	
1	0	0	0	0	553	
2	0	0	0	0	555	
3	0	0	0	0	509	
4	0	0	0	0	440	
5	0	0	0	0	562	
6	0	0	0	0	504	
7	0	0	0	0	601	
8	0	0	0	0	363	
9	0	0	0	0	388	
10	0	0	0	0	563	
11	0	0	0	0	486	
12	0	0	0	0	431	
13	0	0	0	0	506	
14	0	0	0	0	515	
15	0	0	0	0	712	
0	0	0	0	0	495	
1	0	0	0	0	469	
2	0	0	0	0	445	
3	0	0	0	0	727	
4	0	0	0	0	429	
5	0	0	0	0	406	
6	0	0	0	0	544	
7	0	0	0	0	327	
8	0	0	0	0	697	
9	0	0	0	0	399	
10	0	0	0	0	605	
11	0	0	0	0	541	
12	0	0	0	0	363	
13	0	0	0	0	697	
14	0	0	0	0	483	
15	0	0	0	0	552	
0	0	0	0	0	518	
1	0	0	0	0	137	
2	0	0	0	0	812	
3	0	0	0	0	398	
4	0	0	0	0	481	
5	0	0	0	0	636	
6	0	0	0	0	463	
7	0	0	0	0	466	
8	0	0	0	0	739	
9	0	0	0	0	464	
10	0	0	0	0	577	
11	0	0	0	0	319	
12	0	0	0	0	669	
13	0	0	0	0	569	
14	0	0	0	0	453	
15	0	0	0	0	490	
0	0	0	0	0	658	
1	0	0	0	0	397	
2	0	0	0	0	394	
3	0	0	0	0	527	
4	0	0	0	0	507	
5	0	0	0	0	607	
6	0	0	0	0	374	
7	0	0	0	0	689	
8	0	0	0	0	608	
9	0	0	0	0	585	
10	0	0	0	0	350	
11	0	0	0	0	413	
12	0	0	0	0	645	
13	0	0	0	0	470	
14	0	0	0	0	236	
15	0	0	0	0	339	
0	0	0	0	0	558	
1	0	0	0	0	802	
2	0	0	0	0	513	
3	0	0	0	0	302	
4	0	0	0	0	571	
5	0	0	0	0	520	
6	0	0	0	0	224	
7	0	0	0	0	483	
8	0	0	0	0	438	
9	0	0	0	0	451	
10	0	0	0	0	623	
11	0	0	0	0	445	
12	0	0	0	0	234	
13	0	0	0	0	716	
14	0	0	0	0	296	
15	0	0	0	0	412	
0	0	0	0	0	563	
1	0	0	0	0	130	
2	0	0	0	0	344	
3	0	0	0	0	501	
4	0	0	0	0	586	
5	0	0	0	0	206	
6	0	0	0	0	299	
7	0	0	0	0	871	
8	0	0	0	0	72	
9	0	0	0	0	609	
10	0	0	0	0	812	
11	0	0	0	0	302	
12	0	0	0	0	406	
13	0	0	0	0	288	
14	0	0	0	0	915	
15	0	0	0	0	560	
0	0	0	0	0	445	
1	0	0	0	0	431	
2	0	0	0	0	281	
3	0	0	0	0	421	
4	0	0	0	0	370	
5	0	0	0	0	532	
6	0	0	0	0	654	
7	0	0	0	0	408	
8	0	0	0	0	543	
9	0	0	0	0	565	
10	0	0	0	0	473	
11	0	0	0	0	644	
12	0	0	0	0	388	
13	0	0	0	0	574	
14	0	0	0	0	444	
15	0	0	0	0	494	
0	0	0	0	0	460	
1	0	0	0	0	451	
2	0	0	0	0	535	
3	0	0	0	0	582	
4	0	0	0	0	474	
5	0	0	0	0	582	
6	0	0	0	0	301	
7	0	0	0	0	494	
8	0	0	0	0	428	
9	0	0	0	0	484	
10	0	0	0	0	696	
11	0	0	0	0	419	
12	0	0	0	0	516	
13	0	0	0	0	468	
14	0	0	0	0	476	
15	0	0	0	0	503	
0	0	0	0	0	319	
1	0	0	0	0	441	
2	0	0	0	0	526	
3	0	0	0	0	488	
4	0	0	0	0	534	
5	0	0	0	0	526	
6	0	0	0	0	470	
7	0	0	0	0	443	
8	0	0	0	0	497	
9	0	0	0	0	561	
10	0	0	0	0	397	
11	0	0	0	0	506	
12	0	0	0	0	507	
13	0	0	0	0	460	
14	0	0	0	0	530	
15	0	0	0	0	414	
0	0	0	0	0	614	
1	0	0	0	0	459	
2	0	0	0	0	597	
3	0	0	0	0	547	
4	0	0	0	0	401	
5	0	0	0	0	709	
6	0	0	0	0	392	
7	0	0	0	0	463	
8	0	0	0	0	664	
9	0	0	0	0	354	
10	0	0	0	0	487	
11	0	0	0	0	597	
12	0	0	0	0	478	
13	0	0	0	0	612	
14	0	0	0	0	432	
15	0	0	0	0	548	
0	0	0	0	0	461	
1	0	0	0	0	538	
2	0	0	0	0	530	
3	0	0	0	0	537	
4	0	0	0	0	505	
5	0	0	0	0	467	
6	0	0	0	0	534	
7	0	0	0	0	556	
8	0	0	0	0	376	
9	0	0	0	0	572	
10	0	0	0	0	461	
11	0	0	0	0	496	
12	0	0	0	0	507	
13	0	0	0	0	439	
14	0	0	0	0	548	
15	0	0	0	0	435	
0	0	0	0	0	522	
1	0	0	0	0	560	
2	0	0	0	0	382	
3	0	0	0	0	576	
4	0	0	0	0	466	
5	0	0	0	0	552	
6	0	0	0	0	541	
7	0	0	0	0	369	
8	0	0	0	0	570	
9	0	0	0	0	463	
10	0	0	0	0	533	
11	0	0	0	0	562	
12	0	0	0	0	376	
13	0	0	0	0	556	
14	0	0	0	0	441	
15	0	0	0	0	542	
0	0	0	0	0	564	
1	0	0	0	0	354	
2	0	0	0	0	583	
3	0	0	0	0	457	
4	0	0	0	0	539	
5	0	0	0	0	547	
6	0	0	0	0	349	
7	0	0	0	0	593	
8	0	0	0	0	436	
9	0	0	0	0	565	
10	0	0	0	0	556	
11	0	0	0	0	326	
12	0	0	0	0	595	
13	0	0	0	0	418	
14	0	0	0	0	569	
15	0	0	0	0	563	
0	0	0	0	0	340	
1	0	0	0	0	549	
2	0	0	0	0	511	
3	0	0	0	0	530	
4	0	0	0	0	561	
5	0	0	0	0	357	
6	0	0	0	0	568	
7	0	0	0	0	457	
8	0	0	0	0	532	
9	0	0	0	0	606	
10	0	0	0	0	326	
11	0	0	0	0	605	
12	0	0	0	0	459	
13	0	0	0	0	534	
14	0	0	0	0	566	
15	0	0	0	0	339	
0	0	0	0	0	580	
1	0	0	0	0	468	
2	0	0	0	0	515	
3	0	0	0	0	568	
4	0	0	0	0	353	
5	0	0	0	0	577	
6	0	0	0	0	467	
7	0	0	0	0	518	
8	0	0	0	0	565	
9	0	0	0	0	355	
10	0	0	0	0	568	
11	0	0	0	0	476	
12	0	0	0	0	511	
13	0	0	0	0	558	
14	0	0	0	0	376	
15	0	0	0	0	556	
0	0	0	0	0	495	
1	0	0	0	0	505	
2	0	0	0	0	549	
3	0	0	0	0	391	
4	0	0	0	0	555	
5	0	0	0	0	489	
6	0	0	0	0	496	
7	0	0	0	0	550	
8	0	0	0	0	386	
9	0	0	0	0	551	
10	0	0	0	0	492	
11	0	0	0	0	502	
12	0	0	0	0	551	
13	0	0	0	0	390	
14	0	0	0	0	551	
15	0	0	0	0	492	
0	0	0	0	0	505	
1	0	0	0	0	546	
2	0	0	0	0	393	
3	0	0	0	0	548	
4	0	0	0	0	496	
5	0	0	0	0	504	
6	0	0	0	0	552	
7	0	0	0	0	387	
8	0	0	0	0	550	
9	0	0	0	0	516	
10	0	0	0	0	499	
11	0	0	0	0	552	
12	0	0	0	0	382	
13	0	0	0	0	541	
14	0	0	0	0	486	
15	0	0	0	0	501	
0	0	0	0	0	548	
1	0	0	0	0	387	
2	0	0	0	0	563	
3	0	0	0	0	463	
4	0	0	0	0	529	
5	0	0	0	0	545	
6	0	0	0	0	334	
7	0	0	0	0	560	
8	0	0	0	0	455	
9	0	0	0	0	533	
10	0	0	0	0	556	
11	0	0	0	0	358	
12	0	0	0	0	561	
13	0	0	0	0	459	
14	0	0	0	0	508	
15	0	0	0	0	463	
0	0	0	0	0	360	
1	0	0	0	0	567	
2	0	0	0	0	454	
3	0	0	0	0	532	
4	0	0	0	0	543	
5	0	0	0	0	308	
6	0	0	0	0	554	
7	0	0	0	0	440	
8	0	0	0	0	514	
9	0	0	0	0	519	
10	0	0	0	0	454	
11	0	0	0	0	551	
12	0	0	0	0	476	
13	0	0	0	0	515	
14	0	0	0	0	536	
15	0	0	0	0	420	
0	0	0	0	0	501	
1	0	0	0	0	496	
2	0	0	0	0	504	
3	0	0	0	0	520	
4	0	0	0	0	477	
5	0	0	0	0	507	
6	0	0	0	0	428	
7	0	0	0	0	641	
8	0	0	0	0	488	
9	0	0	0	0	461	
10	0	0	0	0	576	
11	0	0	0	0	356	
12	0	0	0	0	643	
13	0	0	0	0	484	
14	0	0	0	0	462	
15	0	0	0	0	570	
0	0	0	0	0	346	
1	0	0	0	0	645	
2	0	0	0	0	531	
3	0	0	0	0	454	
4	0	0	0	0	556	
5	0	0	0	0	360	
6	0	0	0	0	666	
7	0	0	0	0	477	
8	0	0	0	0	477	
9	0	0	0	0	583	
10	0	0	0	0	401	
11	0	0	0	0	618	
12	0	0	0	0	483	
13	0	0	0	0	536	
14	0	0	0	0	523	
15	0	0	0	0	432	
0	0	0	0	0	559	
1	0	0	0	0	505	
2	0	0	0	0	521	
3	0	0	0	0	497	
4	0	0	0	0	439	
5	0	0	0	0	568	
6	0	0	0	0	521	
7	0	0	0	0	510	
8	0	0	0	0	528	
9	0	0	0	0	433	
10	0	0	0	0	588	
11	0	0	0	0	503	
12	0	0	0	0	478	
13	0	0	0	0	543	
14	0	0	0	0	426	
15	0	0	0	0	572	
0	0	0	0	0	512	
1	0	0	0	0	463	
2	0	0	0	0	544	
3	0	0	0	0	433	
4	0	0	0	0	574	
5	0	0	0	0	502	
6	0	0	0	0	470	
7	0	0	0	0	523	
8	0	0	0	0	485	
9	0	0	0	0	581	
10	0	0	0	0	459	
11	0	0	0	0	503	
12	0	0	0	0	513	
13	0	0	0	0	450	
14	0	0	0	0	549	
15	0	0	0	0	512	
0	0	0	0	0	515	
1	0	0	0	0	508	
2	0	0	0	0	437	
3	0	0	0	0	587	
4	0	0	0	0	486	
5	0	0	0	0	510	
6	0	0	0	0	509	
7	0	0	0	0	489	
8	0	0	0	0	551	
9	0	0	0	0	473	
10	0	0	0	0	532	
11	0	0	0	0	533	
12	0	0	0	0	435	
13	0	0	0	0	561	
14	0	0	0	0	499	
15	0	0	0	0	511	
0	0	0	0	0	550	
1	0	0	0	0	421	
2	0	0	0	0	564	
3	0	0	0	0	483	
4	0	0	0	0	507	
5	0	0	0	0	533	
6	0	0	0	0	431	
7	0	0	0	0	564	
8	0	0	0	0	481	
9	0	0	0	0	543	
10	0	0	0	0	511	
11	0	0	0	0	444	
12	0	0	0	0	570	
13	0	0	0	0	474	
14	0	0	0	0	552	
15	0	0	0	0	491	
0	0	0	0	0	479	
1	0	0	0	0	596	
2	0	0	0	0	450	
3	0	0	0	0	520	
4	0	0	0	0	520	
5	0	0	0	0	444	
6	0	0	0	0	575	
7	0	0	0	0	507	
8	0	0	0	0	505	
9	0	0	0	0	544	
10	0	0	0	0	447	
11	0	0	0	0	551	
12	0	0	0	0	536	
13	0	0	0	0	459	
14	0	0	0	0	584	
15	0	0	0	0	408	
0	0	0	0	0	528	
1	0	0	0	0	545	
2	0	0	0	0	491	
3	0	0	0	0	506	
4	0	0	0	0	455	
5	0	0	0	0	559	
6	0	0	0	0	488	
7	0	0	0	0	567	
8	0	0	0	0	498	
9	0	0	0	0	440	
10	0	0	0	0	556	
11	0	0	0	0	470	
12	0	0	0	0	567	
13	0	0	0	0	526	
14	0	0	0	0	409	
15	0	0	0	0	570	
0	0	0	0	0	475	
1	0	0	0	0	537	
2	0	0	0	0	510	
3	0	0	0	0	416	
4	0	0	0	0	598	
5	0	0	0	0	435	
6	0	0	0	0	578	
7	0	0	0	0	521	
8	0	0	0	0	423	
9	0	0	0	0	609	
10	0	0	0	0	496	
11	0	0	0	0	425	
12	0	0	0	0	609	
13	0	0	0	0	357	
14	0	0	0	0	620	
15	0	0	0	0	486	
0	0	0	0	0	461	
1	0	0	0	0	580	
2	0	0	0	0	339	
3	0	0	0	0	658	
4	0	0	0	0	483	
5	0	0	0	0	463	
6	0	0	0	0	562	
7	0	0	0	0	370	
8	0	0	0	0	655	
9	0	0	0	0	422	
10	0	0	0	0	570	
11	0	0	0	0	522	
12	0	0	0	0	353	
13	0	0	0	0	663	
14	0	0	0	0	447	
15	0	0	0	0	498	
0	0	0	0	0	547	
1	0	0	0	0	353	
2	0	0	0	0	679	
3	0	0	0	0	483	
4	0	0	0	0	283	
5	0	0	0	0	675	
6	0	0	0	0	287	
7	0	0	0	0	700	
8	0	0	0	0	536	
9	0	0	0	0	252	
10	0	0	0	0	684	
11	0	0	0	0	296	
12	0	0	0	0	696	
13	0	0	0	0	551	
14	0	0	0	0	235	
15	0	0	0	0	700	
0	0	0	0	0	259	
1	0	0	0	0	712	
2	0	0	0	0	539	
3	0	0	0	0	276	
4	0	0	0	0	656	
5	0	0	0	0	325	
6	0	0	0	0	664	
7	0	0	0	0	539	
8	0	0	0	0	318	
9	0	0	0	0	651	
10	0	0	0	0	307	
11	0	0	0	0	701	
12	0	0	0	0	514	
13	0	0	0	0	342	
14	0	0	0	0	618	
15	0	0	0	0	348	
0	0	0	0	0	654	
1	0	0	0	0	489	
2	0	0	0	0	404	
3	0	0	0	0	593	
4	0	0	0	0	355	
5	0	0	0	0	627	
6	0	0	0	0	510	
7	0	0	0	0	357	
8	0	0	0	0	620	
9	0	0	0	0	367	
10	0	0	0	0	602	
11	0	0	0	0	604	
12	0	0	0	0	329	
13	0	0	0	0	589	
14	0	0	0	0	388	
15	0	0	0	0	627	
0	0	0	0	0	505	
1	0	0	0	0	378	
2	0	0	0	0	605	
3	0	0	0	0	364	
4	0	0	0	0	612	
5	0	0	0	0	524	
6	0	0	0	0	364	
7	0	0	0	0	611	
8	0	0	0	0	356	
9	0	0	0	0	620	
10	0	0	0	0	529	
11	0	0	0	0	367	
12	0	0	0	0	608	
13	0	0	0	0	374	
14	0	0	0	0	611	
15	0	0	0	0	519	
0	0	0	0	0	387	
1	0	0	0	0	623	
