ecg_reposo,ecg_ejercicio
-0.08234623846000069,-0.042684369107945215
-0.08123933990884068,-0.046510394934930636
-0.08010549812545567,-0.047604778545059324
-0.08130449476956472,-0.04483715142302955
-0.08909311730966865,-0.03467935087521711
-0.10301952119747688,-0.018754315034917292
-0.11998871398991441,-0.0022870873974180483
-0.13653758469947103,0.009949625349697303
-0.14795949444283435,0.012355690257598894
-0.15294490059935906,0.0029504828997418456
-0.15221746260242638,-0.016560336280186175
-0.14612083999386036,-0.04241418702377804
-0.1363409899845305,-0.06900954347593008
-0.12341606219656938,-0.0937008311765705
-0.10772496356985409,-0.11504744845400139
-0.09223475734777635,-0.13071161470855847
-0.07972815877157362,-0.13960384169061146
-0.07190061570742039,-0.1394940692982731
-0.06947710217742843,-0.12917266623869517
-0.06970875655213384,-0.11272572735200322
-0.07040940510687543,-0.09511266015142289
-0.07604057711151739,-0.07927566278629351
-0.0894973411847783,-0.0679142443752409
-0.10459746073920062,-0.06114927015622621
-0.116054651563634,-0.057755102343685694
-0.12466171923844416,-0.05964709670884221
-0.1301165794348476,-0.06808663167173301
-0.1312513170198947,-0.08131490844832184
-0.12873999996513713,-0.09764893505946344
-0.1218887274878431,-0.11483359910624032
-0.10995367468645603,-0.1302795846229493
-0.09483491391811985,-0.14387867789265016
-0.07852162643497732,-0.15580954255591326
-0.06218175902936957,-0.16414987965186015
-0.04734140445860459,-0.16735472314994101
-0.03498902186865721,-0.1646811918266934
-0.025225752044933835,-0.15559661371875047
-0.017782362748569418,-0.14164160068716083
-0.011114241201165517,-0.12592895573215107
-0.0016653723015702785,-0.11215684481018437
0.014285589054048463,-0.10421171999544084
0.03859870666088528,-0.10394157110058092
0.07129001770882462,-0.11056750487015557
0.10915474271080614,-0.11999409495352559
0.14793953022689213,-0.1286424093879908
0.18718819961560723,-0.14069309578975533
0.22777205137548504,-0.15859040434966581
0.27113866575148465,-0.17287297171622107
0.31935837800445704,-0.1763270524913781
0.3700472746605276,-0.17290793495699136
0.4184864598654549,-0.16527177247231378
0.46003614989240915,-0.1514509471864021
0.48965748979133683,-0.13154788413906532
0.506565736118645,-0.10475202088486378
0.5138386825427044,-0.07101361715441842
0.5170601302317348,-0.03886420739916749
0.5222376872005822,-0.016538641840007133
0.5283216074554171,-0.0026171179562961746
0.5283585303389439,0.004409218444109053
0.5097332696753193,0.002515672407054122
0.4630492206916935,-0.006979506219840355
0.40200798762185697,-0.02100837542505566
0.34122499035561976,-0.03765436107866711
0.2714058778996815,-0.05509646679883005
0.1875470832186824,-0.07101506352007202
0.10020591624591968,-0.08188210009480454
0.013900227522036472,-0.08526725701843609
-0.07234729018214095,-0.08244586540241368
-0.15616273245267606,-0.07545002290522138
-0.23577552244726646,-0.0649966411830477
-0.3096059466237041,-0.05248048445206801
-0.37121708218327537,-0.0393202593241433
-0.41475741788325166,-0.02655412939432829
-0.4412355171876099,-0.016711551684369032
-0.4528775805757466,-0.011731350740865445
-0.4509715980122585,-0.010722931416062082
-0.4391329428431246,-0.012378016683197804
-0.42060906305186335,-0.01613853469378022
-0.3974828216113371,-0.020840144055248425
-0.37198131648518545,-0.025436862801733497
-0.34588136773553724,-0.029201892366250225
-0.3216000623412522,-0.030564210954651234
-0.3008600863752367,-0.028713126229668824
-0.2825679058143319,-0.025212387639218087
-0.2651917431107443,-0.021906408227028336
-0.24823041336660506,-0.019424811604975906
-0.23163321008512947,-0.01825503014824441
-0.2174713786991537,-0.018102047116063835
-0.20809386004844516,-0.017852342291140466
-0.20224200475081425,-0.01720007845898941
-0.1973995601709063,-0.016279282945084118
-0.19056012942842535,-0.01593178393337775
-0.17814611298309876,-0.017050254471223943
-0.159977916374846,-0.01834962288960785
-0.13819323636803538,-0.01874470665974824
-0.11591884522628491,-0.01964805594583909
-0.09725855394548609,-0.022079690672559903
-0.08338277952545511,-0.025525401816165496
-0.07327959791852502,-0.029726064240090038
-0.06477947835903912,-0.034303339404177735
-0.054845312135140385,-0.0383828551121372
-0.04394486838506689,-0.041661201011661
-0.03433119525983252,-0.04400534512688655
-0.028157552953956645,-0.045012385435700256
-0.0282545418052672,-0.04454757231474457
-0.03444353861598163,-0.04262833426748266
-0.0447096255141484,-0.0395671575243432
-0.05748371154107128,-0.036522805183125465
-0.07025125831887913,-0.03477607875589878
-0.08159083293036955,-0.03490852787475782
-0.09083069011382632,-0.03708001348523571
-0.09617512141442427,-0.04068809111412513
-0.09639742434538125,-0.044595603053637335
-0.09090899994110466,-0.048216425083116875
-0.07996536961571919,-0.05074263176604072
-0.06652311434437853,-0.050626700757639594
-0.05416400665700583,-0.04674115085379307
-0.04455705401346927,-0.03879403072086532
-0.038486567683961796,-0.02771743201937996
-0.034940106885943296,-0.016930145359064203
-0.0320049351323865,-0.01024654536506698
-0.030494809290649297,-0.008755269323785888
-0.03178223322114694,-0.011924609309662495
-0.03648194784078648,-0.017032314257668688
-0.04539395504877888,-0.020313298719738273
-0.05694507537714538,-0.021640665449507334
-0.06801426335439205,-0.022329018743894907
-0.07573424633284372,-0.02381967982719587
-0.07716483437826646,-0.02839589701290368
-0.07147876811571903,-0.03528005654759681
-0.06042191369738096,-0.04216348166610869
-0.04809636601373129,-0.04756217509328582
-0.03921597638651717,-0.04943351062290602
-0.03464713597323666,-0.047396656190948745
-0.03304080530109763,-0.04250050920232894
-0.03168243230840116,-0.0354574371850939
-0.026690567867374365,-0.027616148295219026
-0.01812836676407704,-0.01994937171112294
-0.00848608073213038,-0.013143860249794484
-0.001156415878664388,-0.008824518487174762
-0.0002631880691455654,-0.008288739722384747
-0.005190170835482956,-0.01201035942690575
-0.01273794927469182,-0.019462696893247203
-0.019783304933494967,-0.027719681773941015
-0.02207050024294937,-0.03343370573188397
-0.018468541633241287,-0.03573115325213087
-0.010263697520566694,-0.03519455277534909
0.0010356510777805817,-0.03455617282726929
0.01278314438719935,-0.03737615526390297
0.024324083627463765,-0.043418908175151094
0.035906594273465944,-0.05075299438557966
0.046343722488303755,-0.056814430998551955
0.05483281708798371,-0.05827428591943257
0.05986829964717936,-0.05564234708342147
0.05976849431459182,-0.051704798753671226
0.05513312104530157,-0.049578243599292526
0.04708624975433137,-0.053079966547032204
0.03636423158862924,-0.06248676334516774
0.024518311696497153,-0.0753399950948081
0.01323410164180313,-0.08802270918363604
0.004018600126734415,-0.09597770940600027
-0.001332772347073172,-0.09836199917007356
-0.0017801213896292973,-0.09682135925166964
0.0019351481857220738,-0.09392230258979901
0.00850345049439378,-0.09331627484595065
0.017164211877323414,-0.09504542199880904
0.026718139412450853,-0.09726590325478766
0.0355434946372924,-0.09859967076428097
0.04237228153444767,-0.09692903695302144
0.04601464764068423,-0.0928379414319447
0.04640427173940433,-0.08858008492519638
0.04619170618398253,-0.08554395819014886
0.04838911769635339,-0.08542315966735131
0.05365610177059888,-0.08805226029398586
0.061512539312044714,-0.09143455181709358
0.06963439963981935,-0.09328216041991969
0.0748881511108501,-0.09018533606909765
0.07754616622054043,-0.07878689682911161
0.07910357496772596,-0.06015978101497059
0.0809045887347346,-0.04511080490293345
0.08503224324407495,-0.04419026145266658
0.09111322981873979,-0.05444712299553481
0.09736754318391486,-0.06970663131343914
0.1025835637573784,-0.0847742326043272
0.10505195849203608,-0.09094718215204357
0.104403442125692,-0.08543894830904832
0.10148020560544588,-0.07142922848914893
0.0969989011793039,-0.05502193448874519
0.09211365145501776,-0.04437767214923489
0.08723652582505574,-0.04032883844851266
0.08228778527647565,-0.04067748713757812
0.07772133853891357,-0.045039855530051714
0.07379760792101007,-0.05088359276193969
0.07098514257169308,-0.05877555716506481
0.0697507923119806,-0.07025558488682725
0.0695316174119458,-0.08171822239021644
0.0696559938196185,-0.08978953906748058
0.07000055735430469,-0.09273779666079705
0.07056632004184359,-0.08920184642905254
0.07197022383706114,-0.08214703499286007
0.0750192373013831,-0.07606576552316267
0.07952712913205758,-0.07221638335282532
0.08499427228560823,-0.0720876968872065
0.0908647751370291,-0.07783906221770304
0.09633538136426384,-0.08955970753707178
0.10128903930892946,-0.10624599173045235
0.10597000880577719,-0.12494375915696469
0.1104894721310806,-0.13876546032752132
0.11511180189571653,-0.14216200637329612
0.11971104974497271,-0.13746820519170552
0.12384779591179511,-0.12799999627333442
0.12714930102556388,-0.11211266577187393
0.1293271693442045,-0.09119159543919547
0.1307806689568888,-0.07187128869190645
0.13257199587196067,-0.05702102392660238
0.1362870979848773,-0.04096972557610021
0.14339604559602045,-0.018910282441671367
0.15374082073443043,0.005337482831167946
0.16566040699540935,0.02845701921903136
0.17577378325442872,0.05108401394827273
0.1804149066574595,0.07218072409251984
0.1790769909500829,0.09201294016537792
0.1735726779436369,0.11280470090003837
0.16815075228843354,0.1352403489037151
0.1680236210944914,0.16010622413243905
0.17391065468788428,0.18845929246988502
0.1839870466677437,0.22044850982689415
0.19488547958153385,0.25608334766101054
0.20183849121415343,0.2947772244485765
0.20449210794965084,0.33476612219848134
0.20457451527229414,0.3729786876939988
0.2033507104669404,0.4042979932513984
0.2032721806750338,0.42499405148333347
0.20409598110269742,0.43769064677396524
0.20429797917176204,0.4453255284282532
0.20427271082916573,0.4449952155334206
0.20396676618818,0.43435258113516684
0.2038872514051175,0.41335628675961994
0.20520398203257897,0.3799066610845976
0.20740718983554954,0.3312975267515409
0.2098190843010691,0.2668354915491058
0.21237869179391547,0.1889152137074839
0.21466688020666247,0.10345847576484526
0.216619210142678,0.02090502269476899
0.21847799006728247,-0.05405457056228928
0.2200853474198319,-0.13851495077871762
0.221572252598576,-0.2436511019645163
0.22373444716234553,-0.34198189736622514
0.22728017946342133,-0.4118767767299951
0.23243936161696682,-0.4723064302949178
0.23907796405352147,-0.5339551393171372
0.24629566157892416,-0.5779747336640567
0.2529501085944455,-0.5955368057864521
0.2588086564562571,-0.5946511623183816
0.2639528939269154,-0.5782608123268959
0.26860430342636077,-0.5473159456672829
0.27324857252735496,-0.5080107077101969
0.27760653066784763,-0.46544840187196984
0.281119427056163,-0.4225156674888068
0.28355872975690405,-0.38124379556888427
0.2846064374435403,-0.34252080208653235
0.28436502542934083,-0.3082569626599261
0.2833014314454699,-0.27902631565585473
0.28175665754048645,-0.2514598007194765
0.28015386095835837,-0.22205874249410013
0.2787468976730751,-0.18935479484422874
0.27752067285899645,-0.1537596348422768
0.27636312796460905,-0.12067977124734579
0.27502406143661867,-0.09654033572219771
0.2733309375011076,-0.0814417105863913
0.27107227936595907,-0.07306212765842776
0.267792657505542,-0.06722964729457914
0.263213463451508,-0.0580031481185286
0.2575298746846701,-0.04541351717078873
0.2515320044249623,-0.03206471952159158
0.24706612063788413,-0.01962193962140769
0.24597348086215548,-0.010704835140314707
0.24842015288526648,-0.0034797505594395743
0.25327762637312157,0.005116785466831433
0.2577015117269912,0.013161039643969419
0.2582787349435933,0.019512390284972855
0.25421564435956473,0.025260038323085994
0.24617953524057032,0.029623635407691005
0.23598641699830042,0.030539536421786227
0.22638831399907786,0.02694670405801157
0.21754484472301036,0.019802710674064257
0.20858608096353082,0.011082081100888706
0.19912710333409836,0.003470746913466596
0.1881750008356596,3.2060295287475754e-05
0.17636383374285142,0.0018371349046397423
0.1650828721711463,0.007914829610400652
0.15447078287133068,0.015073838684636805
0.14482722072388057,0.019345634280665772
0.1360945785532171,0.020110486012537763
0.12756978139715514,0.018462862158946363
0.11909296777403561,0.016495630701371694
0.11050320115860374,0.01727719493867364
0.10151169556952488,0.020444459839331436
0.09220560249343576,0.024129182237814194
0.08284225681896189,0.0271246307020015
0.0736789689300216,0.02760806387272442
0.06479029243153255,0.026090988415074286
0.05610821044186118,0.024691202559985925
0.047470692654070945,0.024966676184690013
0.03867684671978382,0.02870566517027067
0.02985322198578905,0.03586985024666266
0.02124221944523739,0.04451548933962487
0.012968716006843285,0.051850321734248354
0.0051986275248691515,0.05478011773549786
-0.002069981035278423,0.05282988663904108
-0.009003823948294638,0.047676381336377485
-0.01576071728427032,0.04266154449754178
-0.02252849460715998,0.04190570862168427
-0.029366509049275215,0.04601903757679567
-0.03618051398065863,0.05356766103654961
-0.042770536569579576,0.06219166312764613
-0.04886859397326087,0.06844686999028043
-0.05435731245414207,0.0721138478835351
-0.05917068324147467,0.07448605375182325
-0.0631965742993638,0.07619291050862077
-0.06643786537626473,0.07869837301204874
-0.06898602998268592,0.08173841418519547
-0.07112356693524752,0.08421428372688236
-0.07356074932382337,0.08668289709289344
-0.07672255516644953,0.08937754801322974
-0.07982641360663562,0.0923544973455745
-0.08171051972803196,0.09577327443261188
-0.0814723476383026,0.09818309383094939
-0.07922423419103919,0.09855521841557158
-0.0783400727193345,0.0987266502164804
-0.08124210576903303,0.10262177864478025
-0.08346969012413351,0.11727697438197056
-0.08146837374273776,0.14518368850029617
-0.07936749636694779,0.17140904479834648
-0.07987098101555011,0.18235495504152932
-0.07998468165923855,0.18704188160075272
-0.07844194867817647,0.19275648168612025
-0.07684292018258435,0.19114928529428465
-0.07543192153641669,0.18092535542279
-0.07364324413287106,0.1716591276329755
-0.07171170787828603,0.1698792919559526
-0.06996820214817054,0.1791024287620376
-0.06853003342238902,0.19995590516396028
-0.06762307102477409,0.22100103243728036
-0.06751188936631046,0.22909127676158814
-0.06839761890696168,0.22554887290036404
-0.07039669531439922,0.21514621609486523
-0.07344480719378775,0.2029073800630496
-0.07737266724908555,0.19789058066953885
-0.08203133710779331,0.20090916979605605
-0.0871726598389304,0.20829791173715914
-0.09241129615098473,0.21841077642474566
-0.09734815570597935,0.22703352731627918
-0.10159437456866453,0.23299581139016196
-0.10484598726300784,0.23833645436047377
-0.10705186301795727,0.2447080778571294
-0.1082587077448379,0.2540566443569873
-0.10839775982818381,0.26393101405633107
-0.10746949534659177,0.27102181155531435
-0.10558295938242379,0.27704286486895874
-0.10284801571780493,0.2831710934952957
-0.0994722590877556,0.2887001163406285
-0.09563892424625195,0.2942731800268658
-0.09129732850068978,0.30023900909814794
-0.08640674756285828,0.3061265579752455
-0.08115329710095213,0.311690993877234
-0.07579875791101522,0.31601712845524754
-0.07073561231111906,0.31700978901248805
-0.06642358556430532,0.31297483928239217
-0.0630682770687136,0.30419848578308184
-0.06078107747900829,0.29281803042330384
-0.059688146595227864,0.28368157239773467
-0.05974551992887131,0.2820085272357072
-0.06080823227559622,0.28860388064759934
-0.06254800420015973,0.30124202432439734
-0.06423606301903519,0.31437857809737135
-0.06512401885337317,0.3209596362814915
-0.06487567807244271,0.31966770652606036
-0.06350304901035603,0.3121813749324034
-0.061605965152254576,0.3016646050307277
-0.0600867747801874,0.2931975827760262
-0.059368901834429715,0.2869144753998493
-0.05983106170699472,0.28102634647579705
-0.0619831763235898,0.27555573079444523
-0.06593626947706771,0.26922791098823773
-0.07149431096181046,0.2625539767339541
-0.0777112145739861,0.25662822684764147
-0.08206469816474754,0.24887204536132393
-0.08204111411006827,0.2369268086530503
-0.07709675837439277,0.22043656716740592
-0.06822425553631467,0.1998033375898028
-0.05875053788900325,0.17864833147080444
-0.05270775526517805,0.16148313017088098
-0.05071816521451701,0.14902167693759819
-0.05161823660240035,0.14058915267441133
-0.05283045882464224,0.13427481362506197
-0.05072337160480107,0.12689668445726912
-0.04529867587834703,0.11854929996999596
-0.03821874603751746,0.11050849399847212
-0.030956251795812673,0.10317481407860504
-0.025903136652981027,0.09766081940205158
-0.02298747390263019,0.09329867835931657
-0.020843508364450824,0.08845015131595325
-0.019207421886577338,0.08285964546541708
-0.017317272762889795,0.07603309214485703
-0.015343631122722138,0.0676995209046647
-0.014265339279294896,0.05820647010479683
-0.014038201725985631,0.047215262823500505
-0.014685048915765345,0.03448327386307012
-0.01614700539256797,0.020348505220221247
-0.01790698073681779,0.005240832483875173
-0.01987474908459347,-0.009902626435607065
-0.021986467431141403,-0.023991638974827312
-0.0239687379220385,-0.036610530403807746
-0.02566266194736325,-0.047800954857462816
-0.026778719161832394,-0.05825784066634649
-0.02697507225732687,-0.06889032251338469
-0.02608892228382811,-0.07951940758662236
-0.024028871520010004,-0.08934042386622532
-0.0208354553518459,-0.09701358599085941
-0.016735552665644263,-0.10102521652970516
-0.012061218215670336,-0.10149000739298746
-0.007357153902133131,-0.09953598659105257
-0.0034735405572133694,-0.09688363762752242
-0.0011834375104611892,-0.09573710950760106
-0.0007375806885101166,-0.09679247039541401
-0.001810674592450452,-0.09983327826857254
-0.0031854688046279236,-0.10437041860021613
-0.003454742049788148,-0.1093627467606884
-0.0023762189623125506,-0.1148806043718262
-0.0004327499760972874,-0.12140522614730452
0.0010720085360261123,-0.12876943695618176
0.0004915560934491179,-0.13687611638550612
-0.002144087293856576,-0.14485051703078153
-0.005965969952946033,-0.15127667999399816
-0.009785100740542686,-0.1552256112818253
-0.0119839092457735,-0.1560542838025327
-0.012465370398328969,-0.1541135525887754
-0.011967531641059964,-0.15119193380401508
-0.011159673946574312,-0.15051422583965918
-0.011089999437667853,-0.15279197143820733
-0.011765008228768845,-0.15006487405349964
-0.012529708560130125,-0.13711353115851863
-0.01298623241341569,-0.12527327818648062
-0.012513728251428298,-0.12353225655460648
-0.01113310793135265,-0.12311433446845642
-0.00932827845910699,-0.11826318561266687
-0.007282810008861999,-0.1152443464630105
-0.00531466195027921,-0.1161504123493741
-0.0034937251678528246,-0.11742996781859924
-0.0016556958987842204,-0.1187454111629887
6.437256465711059e-05,-0.12156342446208093
0.0015606619525218325,-0.12563769415830767
0.002733649886468821,-0.12962291770358952
0.003401774395089171,-0.13211707849235277
0.0035968809280022855,-0.13138001742633446
0.0034233265539280852,-0.12584544576393977
0.002951807144943822,-0.11582638792622409
0.00235504406897027,-0.10356322917558002
0.0018470706302548528,-0.09352546833269994
0.0015926416227233465,-0.09054956914836197
0.0016621609241579019,-0.09582458360434336
0.0019501849695098055,-0.107718264361324
0.0020678955651420063,-0.12132563275259846
0.0016532366458059972,-0.13025146628081002
0.0008413247341249571,-0.13300962585398435
0.0001620274385500672,-0.130355570511548
0.0006547716299762149,-0.12385748699188545
0.003387439435779447,-0.11683704477536305
0.008326726632832914,-0.10897903198616572
0.014632925141219428,-0.09910128428743331
0.020627042207946648,-0.08895540861250595
0.02429998691985967,-0.07976159042046874
0.025130362589233974,-0.07335958392428253
0.023504234145396603,-0.07200248312768238
0.020468153327195714,-0.07485572744861518
0.01770155105347642,-0.08042934956217589
0.01563863570864802,-0.0884368205350873
0.014347546964527835,-0.0976971514373369
0.014459228056198689,-0.10660092160870835
0.016110773797946596,-0.1139374427087853
0.019511808474077436,-0.11815042877134792
0.024431739481177425,-0.11852273991642792
0.028745459944601367,-0.11668521974803255
0.030259160334793554,-0.11465866190999145
0.02845593559188057,-0.11293782218932714
0.023841098242306798,-0.11174349771661324
0.01886546899585931,-0.11070727041494306
0.0165941424864923,-0.10895025980192918
0.017223309009639653,-0.1073101740825503
0.019652591860829217,-0.10683333738349444
0.02194338705037039,-0.10735265142208256
0.02136266648319777,-0.1088510262537305
0.0179838153714979,-0.1109261970058365
0.013242371693672738,-0.11266664652918988
0.008409718242736081,-0.11375849867909477
0.005463438275393689,-0.11392221709616543
0.004552675915105664,-0.11265117596540966
0.004750388294659958,-0.10989988146960251
0.0057721610645433226,-0.10613214323587586
0.006829417498033599,-0.10193631748807365
0.007750071937519414,-0.09778654414423196
0.008752002813684804,-0.09418693731282525
0.008989752403128756,-0.09159603969451018
0.007817691642049531,-0.09027576807600506
0.005202549377127139,-0.09043158636199473
0.0015347204072074575,-0.09176616005641565
-0.0013049625213472184,-0.09291602465731738
-0.001392318888208291,-0.09246685056157916
0.0010294155371640976,-0.0900826160892466
0.004721468080501212,-0.08618545748231898
0.007545635430011985,-0.08243678853927985
0.008846666175164162,-0.0809668641628291
0.015062509362847053,-0.08220660361482579
0.03028577134451323,-0.08592468810139942
0.044545479809009025,-0.09165238037850208
0.049704064363945,-0.09826338982010407
0.052290123141096975,-0.10564521929914703
0.05685152312473198,-0.11378759804485775
0.05942749452568506,-0.12149381652590531
0.059581144441405005,-0.12766983835113685
0.059906064637784744,-0.1312737164759794
0.05981488437602494,-0.13128592978526632
0.05679323895560844,-0.12785904515810567
0.04975494658585495,-0.12171459463612723
0.041046959334294544,-0.11347749037601641
0.033213938256731794,-0.10462059576101418
0.026393494501590634,-0.09768065420261617
0.020932252330280555,-0.0933222729849097
0.016978062181130838,-0.08699787924951718
0.01395863793846935,-0.07577007472887068
0.012976031814206805,-0.06636249799285052
0.014828938848230288,-0.06387423106180348
0.017728141397310507,-0.062338412530130116
0.020287586731288512,-0.057713469833871996
0.02311283967927106,-0.054071934528797744
0.026229606285461317,-0.053033906819991296
0.0282816952291542,-0.05212299265979367
0.028585729452522024,-0.05108703051756399
0.027630162917939266,-0.05140803181323648
0.025797667733655515,-0.053420021673470444
0.023198835269798795,-0.05660791893265526
0.020273125648758567,-0.060276852792917286
0.017534970174472184,-0.06287278064657896
0.015401121420673975,-0.06279680507373678
0.014460264243185287,-0.06026087961693692
0.015059427936630359,-0.05678441874348046
0.016818867169314067,-0.05528114855234964
0.01910220589494482,-0.05688015978794216
0.021361793494262152,-0.054747944670803746
0.022731639459216604,-0.0441963779153971
0.02204052174516576,-0.03479936515387382
0.01839861164292796,-0.034113558637279606
0.011577519661288936,-0.03516408622832345
0.0024274546851071675,-0.03376884225183648
-0.006323327733138938,-0.03556049444541629
-0.011736814315084743,-0.04236232895574118
-0.013209940771975553,-0.05044046056323656
-0.011703967786687426,-0.057550565482143885
-0.010241421561981932,-0.06148356008092858
-0.012351197076604615,-0.05924200084741897
-0.01738455403845389,-0.05091969631546834
-0.022236611824585355,-0.040394993903096345
-0.02197231111501077,-0.03628910251693193
-0.013252441388528555,-0.043288017335426636
-0.003893129199643737,-0.047724550092584646
-0.0009988514637624655,-0.0388570686269029
0.0033208547807041387,-0.032643860360371126
0.01402884160779596,-0.040020340330435195
0.022165970208573346,-0.04534936353511063
0.023031486576490363,-0.04019878810282669
0.022705869002046738,-0.037346373013361404
0.02424047851769738,-0.04347860725586612
0.02441916328031088,-0.052330405307042256
0.022321362251626307,-0.06130588852823294
0.01958525666371287,-0.07114962085953275
0.016328463483503575,-0.07922272465064194
0.012648098830424956,-0.0841556132408784
0.009321736346931092,-0.08676822572907188
0.0062134907245525615,-0.08764489898613433
0.0029924202540685435,-0.0877697965073937
-0.00016080120885330333,-0.0872687386878686
-0.0031167393270089827,-0.08585127718385846
-0.005535129770670411,-0.08414758651867822
-0.006921521927481033,-0.08267401754673792
-0.007248901585319589,-0.08216306352816712
-0.006531980223720826,-0.08344953203660874
-0.00454300408850333,-0.08623911199744082
-0.0012494439733163351,-0.08996110404124118
0.003189424431540171,-0.09439959852997373
0.008411248192301667,-0.0989877484348529
0.013519419437392434,-0.1030320192802903
0.017482520262603374,-0.10587815873768179
0.01968229255957982,-0.10650874989921998
0.019675940768349866,-0.1040178869761685
0.017297975632018358,-0.09811334215971246
0.012743234473216057,-0.08924711606928941
0.0061505546317067415,-0.07923072976143458
-0.0019797720879963874,-0.07181215368780361
-0.01036151783954538,-0.0732058146071115
-0.017655847693382465,-0.0847906872100656
-0.022990002398196104,-0.09253486401886296
-0.025951336843226123,-0.08518217610915181
-0.02717177314856619,-0.07559785747491846
-0.02770554796613009,-0.07436985444370998
-0.027722598930040074,-0.07102128153745374
-0.027338197833256018,-0.06063658916400742
-0.02688295424680889,-0.05153850715312687
-0.026425932598753,-0.04743764555515113
-0.026522929502073484,-0.048054267635174355
-0.027606498209764217,-0.05328383959580282
-0.028985962730985183,-0.05555255300739527
-0.029918296777413943,-0.04884310311304091
-0.030219431060201918,-0.04387664559407204
-0.02981265176029715,-0.04906131103947021
-0.029222536857054927,-0.05320343812446373
-0.029202080226865,-0.04944447425540048
-0.02959173027062378,-0.04813104202312169
-0.030062248633662948,-0.05437109714818374
-0.030491842040503224,-0.06054844786917452
-0.03055775458146043,-0.06299785008985333
-0.030356766664347654,-0.06552536224245765
-0.030200995890357796,-0.06923174310620181
-0.03007489345326962,-0.0722921156289376
-0.030012591219402404,-0.0747236426812933
-0.029996691313370915,-0.07669706547662132
-0.029822222821324452,-0.07738886164376094
-0.02933554423300699,-0.07643844929555557
-0.028393570554062292,-0.07363804129779679
-0.0269194381226077,-0.06862194653220124
-0.024970382214336832,-0.0611666108778059
-0.022699592918378062,-0.05097206894653798
-0.020308428078482897,-0.03771460699544248
-0.017895698612108324,-0.02118445376764399
-0.015525806122690774,-0.0011882574345363904
-0.01329250656977129,0.022403562204639568
-0.01129441963041177,0.04954777429005926
-0.009783585456512783,0.0799545261223919
-0.00910490811072502,0.11303172046383192
-0.009593207551168168,0.14780252178254852
-0.011502465796473769,0.18310658914574307
-0.014741231079331589,0.21794744408186206
-0.018834762161482988,0.2514059817681275
-0.02287706165703457,0.2827043328464972
-0.02587629347318435,0.31127907603192995
-0.027472001001036115,0.33654162144594774
-0.02780720683936876,0.35821041273352366
-0.027634184376220988,0.3766680123343257
-0.027955574112967424,0.3923567537140316
-0.028827919362531026,0.40527069495504786
-0.029865574369630107,0.41501357598909383
-0.030491958477004547,0.4203595209354819
-0.029757687034098097,0.419674786664396
-0.02734108299603572,0.4119588834649748
-0.023010455149314095,0.3961148407317159
-0.01589387295301818,0.3706074800526218
-0.006699928058249353,0.33482980928700484
0.00028854366318397756,0.2898626755103541
0.0025147592760757934,0.23653775742630465
0.005200293612219765,0.17341753785030406
0.012606033937410594,0.10006420279824628
0.020050652632459337,0.019967129319732012
0.024193555293329408,-0.06342450848259135
0.028077546007704644,-0.14891780377268132
0.03276503210683299,-0.2342539640736474
0.03655497704610016,-0.315573427230408
0.03939970034044182,-0.389872494761305
0.041791054814038095,-0.45528784391443333
0.043460632363074785,-0.5098577265527644
0.04424937792904058,-0.5512955751989208
0.04427789041550095,-0.5778011930526618
0.043854211698281714,-0.5881226211318354
0.04333528575349154,-0.5817373040192859
0.04285976468279622,-0.5598520702004567
0.04252025407902367,-0.5252486280404006
0.042390528170264605,-0.4821192642609358
0.04241408905728477,-0.43649181384338614
0.042559032647148096,-0.3959434175747418
0.04269447808739817,-0.3648654230600406
0.042402972910144075,-0.3379310354591839
0.04126817973462361,-0.3092085201068362
0.03910238702341448,-0.28292598714360634
0.03591405577030968,-0.262182458720518
0.03210844632606439,-0.2435761482732133
0.028153455199606253,-0.2257642367659918
0.023914327656705064,-0.2077283119925649
0.01945815499649553,-0.1867488398926908
0.015809160759681737,-0.16238001863343168
0.01383484978146554,-0.13538783884030464
0.013612573251114837,-0.10678199839766975
0.015228672160615195,-0.07924011982888234
0.01884385142622464,-0.0565426093042959
0.02424660939198159,-0.041936152787328415
0.031077678841935106,-0.036397288272581395
0.03893997017713743,-0.03737182911126126
0.0473214800666672,-0.03667499398724231
0.05558649015820289,-0.02597924871518743
0.06287576008497403,-0.0058310575705853825
0.06834988418035255,0.019532424391395783
0.07148210103936109,0.0444712573362468
0.07199917923413701,0.06053324651861094
0.07000993474982399,0.06465824684435738
0.0663274844668583,0.058781153254225296
0.06266701613820037,0.0486959665760179
0.06089882793419102,0.042179076031792447
0.061997019063585165,0.038936862647370896
0.06611889149733302,0.03647910102246111
0.0721375740080794,0.035635055966799827
0.07835044394282187,0.03507691723689431
0.08444780797677394,0.035325495568531255
0.090419644431622,0.037676641504278956
0.09603244031639188,0.03818755871233751
0.10142360677936921,0.034229997723457785
0.10579539926932444,0.02916489776684522
0.10823697561936292,0.02549956532923593
0.10909450860375196,0.021755359379602098
0.10879366660937012,0.018243028539188796
0.1076913040155686,0.018816107183070693
0.10653302637856721,0.024992663744763777
0.1057851485628635,0.03298123881630635
0.1058057246002584,0.03935284054983955
0.10724218959740764,0.04479419188901093
0.11038274832686927,0.04962513188137617
0.11479882908073025,0.05306367034987419
0.11989143431463446,0.055511391536902016
0.12520711827339018,0.05647874932025665
0.13014735619975604,0.055416516919436054
0.1340916865731973,0.054092014526875204
0.13665374932767302,0.054292528352601704
0.13761999514828643,0.05651573862788114
0.1374491876541949,0.06086629402130711
0.13793078191964964,0.06591437939757473
0.14087531546339646,0.06965215155501062
0.14649695897229517,0.07204600661398824
0.15384975327191336,0.07361463628485654
0.16026038715185736,0.07497066789743884
0.16251921535803396,0.07726159322599968
0.16011383387319297,0.08021500441528588
0.1539089519498574,0.08302301041220125
0.1457225677162657,0.08559293733323589
0.1383114222558519,0.08752174556772684
0.13204424690155497,0.08870916480593255
0.12634770314951874,0.08933450953996229
0.12125333840951416,0.08886087146463817
0.11621928370447479,0.08692956790823153
0.11201784891802191,0.08391475789482097
0.11002057771203032,0.08063618802757964
0.11029806227991781,0.07892302506644744
0.1128406172234607,0.08070851957989776
0.11713120240282045,0.0863366485020442
0.12174755035370868,0.09501331901033096
0.12530319823306954,0.10449151574709434
0.12644802476963504,0.11197996604112258
0.12437056184616357,0.11697825951822442
0.11927123730764433,0.12025353898265154
0.11254039626525957,0.12350857656668393
0.10597633448828768,0.12917710175755134
0.1002054236436508,0.13727211555701085
0.09534059209983028,0.14672839225814668
0.09113851557661663,0.15671129146774807
0.08693410526756547,0.1657789691938653
0.08328035865524168,0.17405800218106665
0.0809324616210296,0.18246411524552728
0.079694115621958,0.1910131780596287
0.0794872205076147,0.19993858707587053
0.07998158674250311,0.20886793159827097
0.08058373624118718,0.21676676891872954
0.08143767806994742,0.22308102858690726
0.08272214786137436,0.2276765620283689
0.08410341625809929,0.2317139759952223
0.08535921582286701,0.23617956115758995
0.0862873407843484,0.2392410813769012
0.0866291052693285,0.23940715645792782
0.0865210513774229,0.23820915058096395
0.0863062900920076,0.23665399762959163
0.0863498354060829,0.23381179883392805
0.08713084122919901,0.22960590733882577
0.08898065974524838,0.22517332389702185
0.09202706871202833,0.22149586725332335
0.0962097635408459,0.21975654518151302
0.1009881676757575,0.22127584462413233
0.1051526432945092,0.22640841012716886
0.10779080649033285,0.23446369515721682
0.10958391125709119,0.24342651116338845
0.11112491199026227,0.2508607102279277
0.11119868069129886,0.2559356592240537
0.10925106299399091,0.25930242208943616
0.10687504827891102,0.2638823602455005
0.10532335065764743,0.27291210561922624
0.10447074500145945,0.2854175379728621
0.1040814512460885,0.29856601948345174
0.10334555365779391,0.3087769033167253
0.10102022487289061,0.3115230019563748
0.09707297318018167,0.3059445114661027
0.09205309544041008,0.2938453323290318
0.08672884836551524,0.2783563280362339
0.08216294750468611,0.2638850855266784
0.07829051679749008,0.25152166732234604
0.07445567574977062,0.24071154194066063
0.07007858302825704,0.23129029981919944
0.06440389714483774,0.22198985838355761
0.05764357682302336,0.21332902818616628
0.05076308733808262,0.20623314563246406
0.04492352237235536,0.19908593670994087
0.041446540305610166,0.19056725244798742
0.0405809611596818,0.18022434563112258
0.041700671582558205,0.16816329035427663
0.0436503003001474,0.1574316116436944
0.04494307695355413,0.15149979912324468
0.04531461052375789,0.15051526067257137
0.04523603501076853,0.1532122024370764
0.04543391520422949,0.15652089813975956
0.04705958335074475,0.15628190580878057
0.05027437155358421,0.15191053672335236
0.05486835623107264,0.14435394778920949
0.06114399408747268,0.13467191565172812
0.06907859934060817,0.1249439193580501
0.0787287207741685,0.1147863852061983
0.08999324777576231,0.10266512557813647
0.10158065585531595,0.08812469131145159
0.11262379157381285,0.07055375001386766
0.12437238441483314,0.05117966495405199
0.139868663730373,0.03285665863523486
0.164933155596894,0.01842074809968471
0.20198731696618535,0.0105685297409619
0.23991641543398187,0.009527684547410261
0.2702410106477541,0.012776452928984832
0.3056475693407832,0.01520276408220226
0.35514932475465494,0.011044930314223501
0.4058653454374816,-0.0011214584915988854
0.4486323657454331,-0.01953823001141263
0.4875294845791166,-0.039285064235522166
0.5221822643224855,-0.05384235227383337
0.5482722638078604,-0.062324748729260936
0.5671283353035469,-0.06643325133470311
0.5841782974329043,-0.06832033154615573
0.6036802706997594,-0.0718583447336496
0.6258260324696935,-0.07673460172274028
0.6478836167801684,-0.08110639137460829
0.6627112799968308,-0.08571479736580821
0.6606275957033245,-0.09042181754943314
0.6362845124388312,-0.09587314158891798
0.589247735229371,-0.10323178395947726
0.5277321407286434,-0.1105364087823785
0.4618186327709259,-0.11563934628005568
0.3886029776535889,-0.11820849540435244
0.304084102470396,-0.11813293499607219
0.21124085669220694,-0.11686937246108799
0.1108768505474938,-0.11657394236974358
0.006526522518437584,-0.11710000624028959
-0.09372872841317356,-0.1176949027281869
-0.18264311150043103,-0.11766640285269173
-0.25346496573654426,-0.11589247899070777
-0.30336517476100483,-0.11309136702770235
-0.3341215261101738,-0.11107895687537525
-0.35081789403726843,-0.11161237494691989
-0.3603112601846936,-0.11590796796830333
-0.36511716317373494,-0.12169252423066962
-0.36473127710651865,-0.12616549749162176
-0.3564514387920835,-0.13020464602620807
-0.33628909072482827,-0.13383323537597952
-0.3067004682480422,-0.13406551592464533
-0.2727559489913945,-0.1300385334263215
-0.23843196930178936,-0.12512586082932664
-0.2088014625686165,-0.122272189229439
-0.18449063323343126,-0.1210736879741885
-0.16323317752262215,-0.12107265480539799
-0.1439948224015159,-0.12218030176363918
-0.12477892548604376,-0.12326126259000138
-0.10548706108813959,-0.12431492170430562
-0.08827375244932899,-0.12570431960122488
-0.07538745970953753,-0.1264571263421737
-0.06924132969792918,-0.12580346059083622
-0.06944716205925484,-0.12328035006731826
-0.07332043431524256,-0.11866062605704732
-0.0771744097339342,-0.11331541726199958
-0.0767176005455877,-0.10895833428804924
-0.0709624224491634,-0.10599083867097418
-0.06115235688721206,-0.10452810554245562
-0.04941264380914311,-0.10422700134191408
-0.03893110492262653,-0.10428515426666549
-0.030029812924262843,-0.10508635892494668
-0.021432502063147153,-0.10725511403058571
-0.01206564527144619,-0.11078964078846744
-0.00024431771437341613,-0.11573841861853394
0.013235317775648276,-0.12142291451762922
0.026201384366430137,-0.12651214392389853
0.03730908398229547,-0.12974633390741377
0.04483887236361052,-0.12997714150867298
0.04847531458673864,-0.1270062549931384
0.04916730155230002,-0.12188220364800778
0.0475424325484885,-0.11702333732795345
0.044626481360609004,-0.11508031739857279
0.04088306674073879,-0.11658863226474578
0.03612079524465139,-0.12050748295675291
0.030330929695790432,-0.12402383185914556
0.023483090848478178,-0.1236692674538731
0.016370501666615092,-0.11923487390392958
0.010369859470067907,-0.11223518604329306
0.006754519313500216,-0.10509636814807995
0.006638670298956307,-0.10113778897935226
0.009853391648077331,-0.1004713534918136
0.014945082906003469,-0.10155609415949036
0.019400649074009256,-0.10299073195001424
0.020448540402063148,-0.10259523076310872
0.01730067359454084,-0.1004549818356784
0.010842944343442427,-0.09802412889256355
0.003761352559442807,-0.09613394630820989
-0.0004515203368690955,-0.09594644500820113
-0.0010831609827565965,-0.09699888130182721
0.0012643936833028797,-0.09746155369481606
0.005498651418322695,-0.09560003663023235
0.00967849700714985,-0.08973087019439682
0.014305180773038433,-0.08031595028224507
0.020766023381577164,-0.06994312303756857
0.029277905872246428,-0.06279784169303626
0.040156362656305365,-0.06319128375749779
0.05197524758402297,-0.07134861782180504
0.061730059905999196,-0.08408424652254265
0.06641049496756474,-0.09476209733714905
0.06323261638505827,-0.09592039611394067
0.05190818697391351,-0.08712498167603981
0.035087932892695725,-0.0727393232512618
0.018480866453732616,-0.06130335011087446
0.008576711915327682,-0.06002056183246548
0.007322236131633692,-0.0591040496722109
0.013467834192395894,-0.04891304530993556
0.022484326173275906,-0.0396915758022954
0.028024233456481102,-0.03755850924417831
0.029360527653137253,-0.032841473294409354
0.027995807816674947,-0.02305701116088088
0.025150951811847868,-0.020007187439464447
0.023940973982180157,-0.029169575624124786
0.024451215667875392,-0.03908435333873616
0.02504819216047071,-0.04122230982040878
0.025310009885892118,-0.04158928473271127
0.024455873852897013,-0.04433521602151075
0.0241729208049928,-0.04829562176456801
0.026626066141658026,-0.05438775956442977
0.030189527037801804,-0.05881650249736443
0.03337386552420217,-0.05695971135412573
0.03652341161116491,-0.05424339543402722
0.039196386083469294,-0.05535340357172972
0.04102144562436678,-0.05616195490472639
0.042254414228100466,-0.05466003318792488
0.042552281085073834,-0.05395783926909501
0.04180241294805571,-0.05488095439928396
0.04089520274272289,-0.055883064570061494
0.040656041845013355,-0.056584337771827926
0.04133857033610688,-0.057209622621556794
0.042909500628506264,-0.05751314207929707
0.044548783553004026,-0.05748596593735286
0.045196326444684055,-0.0573063516865744
0.04486424626892516,-0.056599075953267665
0.043924449669820946,-0.05488915574564061
0.04285809752167122,-0.05193389668737638
0.04243860504706607,-0.047535448818284046
0.04262824956373079,-0.041936376082989134
0.043035411017403255,-0.03588008804105184
0.04354549944997923,-0.030482553316637094
0.043865776375159454,-0.02692009956779148
0.04404020423127345,-0.025653845569657722
0.04436075256130312,-0.026439303770090815
0.04482326714312045,-0.02816208735017921
0.04546995403352277,-0.02940052026350898
0.04629966606814131,-0.02994377396553904
0.04718390535618299,-0.030179721854350576
0.04816182532695715,-0.03087420261946823
0.04927442664954525,-0.03313343591200579
0.05047400774815007,-0.03675802019244419
0.051720528278614224,-0.040982621895782986
0.05287210525733604,-0.04527317236011198
0.053722212837433975,-0.048828409040276646
0.054103775576160966,-0.05164971024108683
0.05380912461000802,-0.054270696062673617
0.05258018910686618,-0.05694328251171283
0.050201363714537574,-0.060078764709591156
0.04653702718204953,-0.06371835907677273
0.04157537067745917,-0.06749104464015772
0.03552527149727965,-0.07107481749069121
0.028768219791780993,-0.07404387021790897
0.02176791612454607,-0.07624077911528275
0.01519541858185916,-0.07768893706315862
0.009993044689041853,-0.07824589234458267
0.007048180548212225,-0.07785047316059177
0.006859886165582696,-0.07639862187411095
0.009446030768430586,-0.07378714749095275
0.0140235584984563,-0.07023339867216452
0.019497477030699144,-0.06607261910997024
0.025405483414678416,-0.0616675967716299
0.03147489436952742,-0.0575460821840282
0.037586475666651784,-0.05430122582009907
0.04384094968362757,-0.052486819305894
0.049663527508181454,-0.05255136094112563
0.054403044752950463,-0.05468715847439278
0.0579964347586849,-0.05864753367183489
0.060358514817117535,-0.06388930691607062
0.06154372668611683,-0.06980318673274409
0.06180738283908738,-0.07545450788014463
0.06108996874681787,-0.07946832052110132
0.05936674311627336,-0.08064688048883456
0.05695974274815241,-0.07853037640021225
0.05417587819048333,-0.07363343542006429
0.05129689204091949,-0.06811385065840926
0.04866577969861171,-0.06459522210111586
0.04648285248998422,-0.06411209270250771
0.04484031333005103,-0.06691215709115104
0.04379621702728592,-0.07231699142926673
0.04336309186401963,-0.07874161649454929
0.04364784359061837,-0.08580805620714557
0.044878007165618086,-0.0928763966172359
0.04742364849270512,-0.09761974388192847
0.05159403261831406,-0.09829611812376207
0.05722948697492136,-0.09452022221780101
0.06381140562939129,-0.08757402660520754
0.07044802319115867,-0.08255265849876825
0.07607794909953283,-0.08254978614217334
0.0801644169533873,-0.0800595092863101
0.08248861115785754,-0.06958597493626699
0.08307447326531857,-0.060663720181972566
0.08228294507137822,-0.05977482933846867
0.08024715601161474,-0.05831561832676803
0.07725414827434605,-0.0510896941971244
0.07419941771175431,-0.04364697867385862
0.07200419221002065,-0.03820392563912913
0.0714640832702628,-0.0314234864840426
0.07318584825313412,-0.023322585161157865
0.0770116370433372,-0.01755441724930235
0.08245464860558296,-0.016402213778794444
0.08937372762547541,-0.02006618399800375
0.09736061980249498,-0.028376881208046816
0.10557258219238724,-0.03973713315869989
0.11322581320509603,-0.05148627514458229
0.11952176388218087,-0.06256245825426195
0.12396654767782339,-0.07207551780076563
0.12705886695213497,-0.0783204695474775
0.12952791016990792,-0.08054622966101797
0.13142847201070273,-0.07876346285982831
0.13277322239094397,-0.07459700998419248
0.13350456291103183,-0.07348897721571768
0.13336582380101336,-0.07969838986612679
0.13270961395412464,-0.08986202810931652
0.13190429492094458,-0.09955181072897798
0.13065026244738281,-0.10838586300704979
0.12870558213280428,-0.1146815645709808
0.12600148652066803,-0.11650295618089283
0.12244389670366748,-0.11333147290199821
0.11834651154844568,-0.10253466785617325
0.11414652086440992,-0.08239538275266481
0.10988163982694721,-0.055539776421718826
0.10561812432921443,-0.025345239839691835
0.10158706145657304,0.005562618863739671
0.09791666339665366,0.03354308088306086
0.09480301989869509,0.055229354829547696
0.09241542657265972,0.07067540046425831
0.09061496047708541,0.08592465964961331
0.089202699619744,0.10777289523769357
0.08809753410972504,0.13673768351776555
0.08716393598875387,0.17119322172099885
0.08626472467823212,0.207747457919896
0.08527253088770669,0.24093843203174367
0.08389345328567926,0.2706882724557649
0.0817945274383236,0.2986995343084118
0.07872236879862161,0.3245333413762252
0.07429428417865055,0.34890428379086524
0.06788777122323131,0.3704359500636797
0.059227186995941,0.3865825245821831
0.0490476878790277,0.397691073079693
0.038257774539115726,0.40387657197208204
0.02713909091223062,0.4042956344433713
0.0164971707669547,0.39834159912944656
0.008281125304697053,0.38370296125830333
0.003980510194934838,0.3579185988627123
0.0035243992448832587,0.32102808481439227
0.0055935277527053,0.27425799611225926
0.006864927184908003,0.22032731048743098
0.003545655072791627,0.1628404916379564
-0.005360498863518336,0.10303522821302828
-0.01892174460696234,0.04091878121099939
-0.03393138015240527,-0.024189000354410156
-0.046149455998389786,-0.09347660791841449
-0.055171202291536006,-0.16521144871076482
-0.06232085493277934,-0.23600106395659706
-0.06942445909421577,-0.30205976126523076
-0.07934506271674678,-0.3589728737556056
-0.09163080149996859,-0.40494767723657493
-0.10432367343758273,-0.4399257357841897
-0.11647131365531396,-0.4641646660156264
-0.12645075824249893,-0.479068516497303
-0.1342983061062959,-0.48495737119857585
-0.141257524726013,-0.4818990680430814
-0.14755266177545964,-0.47145544100540376
-0.15375479219459573,-0.4552114087985776
-0.1601264978463157,-0.4352627699260364
-0.1663642378263658,-0.41392283557402554
-0.17286211772013144,-0.39193465802760674
-0.17989122811563607,-0.36956606090429817
-0.18731964216628727,-0.3473301128203418
-0.19482045849965568,-0.32486210097150675
-0.2011319440217763,-0.3010600799978533
-0.2049189594059163,-0.27503319384324076
-0.20602971934762573,-0.2466197551712979
-0.2051184009484703,-0.21704015630332085
-0.20408714304711867,-0.1901091476820036
-0.2052334632660674,-0.16820257552540616
-0.20894850892676708,-0.1462490265734424
-0.21459812687093674,-0.12010723479956001
-0.22071083114269943,-0.09517425374660098
-0.2251974410593106,-0.07489302467899003
-0.2279638154822214,-0.05384443749936066
-0.22981598253004537,-0.02962961759246722
-0.2314607480699274,-0.00758309637938804
-0.2341082293612702,0.008888180151097038
-0.2375692577635783,0.021351841048374513
-0.24094458406558156,0.030215261786726302
-0.24397861378131822,0.03450991176548765
-0.24617806054146682,0.034825985008401415
-0.24764885973816328,0.03174252590028601
-0.24904679619487297,0.025688292023179526
-0.2505758550649027,0.018416070255977728
-0.25250330240264,0.011824096035449991
-0.2549219258669587,0.007118588302985
-0.257545332297372,0.004995317626960502
-0.2601383157373049,0.004696576401565047
-0.26235814588620615,0.004888965570058593
-0.26385313460992543,0.0054612222387081235
-0.2642810964281484,0.006374553835633034
-0.26307065067452934,0.007369596604482571
-0.25980745076951134,0.008592499109633145
-0.2545794295239403,0.009572623159918695
-0.24805163807862735,0.01006663273212575
-0.24187985426379674,0.011379305788355778
-0.23785322354304866,0.014777393715940139
-0.23647232130310702,0.02046683823828697
-0.23732091314445794,0.028132609404949823
-0.23876396319716617,0.03612811404193143
-0.23866010153457523,0.04238218658342387
-0.23671866116269466,0.0466601173784926
-0.23348978155338693,0.049385534868568066
-0.22989321250382777,0.05125371710448049
-0.2274055883014454,0.053519414669190774
-0.2258768282671818,0.05608770641104887
-0.22451100500743817,0.05832659353512433
-0.22310411043363193,0.06013787068503026
-0.22108588561112325,0.06116271763449972
-0.21853304072114935,0.06166842335539747
-0.21590395715978894,0.06235426880985659
-0.21281661728661594,0.06336670229512281
-0.20902124061056382,0.06487728613865583
-0.20461017173910562,0.06690104357218335
-0.199724428755403,0.06907596290415091
-0.1952293226461861,0.07110270420275387
-0.19216371537131013,0.07272638348243693
-0.1908671672782996,0.07395068972020254
-0.19143197206158877,0.07519900601706762
-0.19358088425467224,0.0773137397161992
-0.1966743519196915,0.08094710927731213
-0.20052598342379843,0.08546774476154849
-0.20491298049966766,0.08943504422368542
-0.20916292111697632,0.09086283040677186
-0.21271044865362795,0.08907034857835704
-0.21501519998282767,0.08850165737664695
-0.21572104261298258,0.09255914437523508
-0.21527582442285487,0.09589139000277319
-0.21433062318173599,0.09453668067535878
-0.2130611066737707,0.093731276984926
-0.21163627877319746,0.09663654956723851
-0.21013071728953342,0.09942443004060818
-0.20847039735535686,0.10052394526711621
-0.20706644733959856,0.10260611131101595
-0.20634006440047586,0.10737526014762325
-0.20623425545609078,0.11619798050461705
-0.20663181059361335,0.12994900833688308
-0.20724118886526005,0.14455346117484894
-0.20745301386468107,0.1551699345129564
-0.20658840660599861,0.16180063681080753
-0.2041644690979713,0.16569343575341022
-0.20034464841897828,0.16971662535064289
-0.19621269476788414,0.17678387376404248
-0.19415117397050033,0.18200951035956778
-0.19654512859273424,0.1813701165498112
-0.20361687721159005,0.18170739603734548
-0.21387892701153755,0.18747349132411414
-0.2236795233151824,0.19270172745650438
-0.2287181099041557,0.19373685825203296
-0.22826094647085837,0.19379739940470272
-0.2236668893330797,0.19459676186507907
-0.21798343165680878,0.1963439624222686
-0.2153771415754328,0.20090351886078248
-0.21606079812573992,0.20867642069238757
-0.21830795029757624,0.21848525349832193
-0.22022802147647627,0.22901035871191813
-0.21893848327097348,0.23856064752429548
-0.21473265436407596,0.24667480766616093
-0.20958652644889522,0.2537846802635188
-0.20462282659346606,0.2604447272614404
-0.20164496298195558,0.2675461014582254
-0.20078956780154447,0.27480244799735387
-0.2009671778280577,0.2812705334300442
-0.20201539232175394,0.2862628485875096
-0.20331044007679164,0.2889762919171775
-0.20444659107608457,0.2896698963929414
-0.20531733173987007,0.2894196938069471
-0.20466559845920557,0.2893350881534295
-0.20138951669471483,0.2907821659020137
-0.1954136139272973,0.29441272180454037
-0.18741202288701894,0.29972057480631337
-0.1798399033855048,0.30477335525929844
-0.1755543623767656,0.30738300282285524
-0.1752909885742888,0.3075319052960319
-0.17860186020737961,0.30596347177919214
-0.18356436558622255,0.30339271306179383
-0.18741498581070506,0.30113082940562447
-0.1898578486238537,0.299179914598516
-0.19150661364682203,0.2966898363392024
-0.1928386017704107,0.2929665806563177
-0.1949750964146771,0.2871322868821376
-0.1973082260683273,0.27956076080176395
-0.1985447115904821,0.2714497837364814
-0.1985350148412939,0.2638490362113649
-0.19693842086290841,0.25789237410132526
-0.1939516590867442,0.2535124941230611
-0.19044684634917203,0.24944302724328324
-0.18674635745950852,0.24366268561197693
-0.18322248562492735,0.233879549844846
-0.18030657820381618,0.21950951643906572
-0.17801839113989895,0.2012788274273184
-0.17623788695106785,0.18098119055593967
-0.17478828223765908,0.16117947000186195
-0.17360359294811223,0.14275152074103759
-0.1726811447914325,0.12599347812097877
-0.17196015005670015,0.11163287866293649
-0.17140256000515508,0.099777983842165
-0.17081903089560796,0.09113204779017411
-0.1700522289997776,0.08615178825438323
-0.16929157331196734,0.08322597739997149
-0.16875430710336972,0.08039309995375103
-0.16849827766916542,0.0762175762394949
-0.16857976818911422,0.06910667459345564
-0.16891434048595388,0.05825959241591954
-0.16933100235333354,0.04363564837390758
-0.1698400887715809,0.025089950592918076
-0.17040401372106306,0.0037960323323441097
-0.17077918141417067,-0.016638914868492536
-0.17078233491068162,-0.03230938908998513
-0.17037135233959774,-0.04088012236426576
-0.16964033590784253,-0.04118921258268964
-0.1690167545664459,-0.034501015712758855
-0.1687301991208548,-0.023636816982348544
-0.16799697759878032,-0.009956317939252122
-0.16621587093866852,0.004134982315455527
-0.16421824817579653,0.013557117400167042
-0.1625356045222706,0.01405380947452065
-0.16023127788290817,0.0035843610640283697
-0.15666691915566672,-0.01675889292267981
-0.15219524659163464,-0.03914956846878392
-0.14698102817578088,-0.054348748348116455
-0.14103627278712336,-0.05997880979786828
-0.13508490945750362,-0.05695232433069683
-0.13070240191175403,-0.05025888922114074
-0.12931660781752163,-0.04754279807853268
-0.1311974270992847,-0.048747521788360976
-0.13573094509376163,-0.05152527631697547
-0.14106686551061767,-0.05554596241546853
-0.14489790981776934,-0.0585385559326968
-0.14662792244226402,-0.06179453006559114
-0.1465672367464463,-0.06782995636037613
-0.1457145504022367,-0.07436290285750043
-0.14571012522664065,-0.07937438891843569
-0.1465726023884279,-0.08204277554341881
-0.14780641720368007,-0.08111102946530539
-0.1495449414905083,-0.07813537012219644
-0.1515308529610179,-0.07557627767513642
-0.15414505442448198,-0.07349557127893523
-0.1579608461531612,-0.07215901043595796
-0.16232048687545156,-0.07241342496448037
-0.1664915166779823,-0.07429210351806528
-0.17007529780594305,-0.07830210747912732
-0.17248591316468356,-0.08442380688607425
-0.17357083786125055,-0.0902810424503778
-0.17338395303648427,-0.0934232831589639
-0.17150600373826314,-0.09318772135221147
-0.16768306582115103,-0.08977559726469195
-0.16212436838051203,-0.08520037580106003
-0.15514065259323281,-0.08230478517879437
-0.1473356163773785,-0.08154213462229326
-0.13965784507892692,-0.08271969980365722
-0.13316962043736877,-0.08585035540232912
-0.12894782362457088,-0.0900584485664194
-0.12781971812184173,-0.0953957968752648
-0.13011686341955042,-0.10173006207241654
-0.13540437983891598,-0.1067366405893611
-0.14272739273947518,-0.10830886195123547
-0.15113395218385126,-0.10586413865215465
-0.15917872683060863,-0.09990014390396637
-0.1646683354163377,-0.09362388229687209
-0.16570816232789565,-0.09088354407499388
-0.1615060700361718,-0.09217291708935164
-0.15280431738652825,-0.0964383113558491
-0.14306614158435743,-0.10110189910459301
-0.1363425866223572,-0.10251161383015847
-0.13374583770643025,-0.1005586236048762
-0.13474344073784175,-0.09664693822635655
-0.13676250551531732,-0.09197439921300057
-0.13618922275282944,-0.08864129064470458
-0.13330805271108281,-0.08639906095972462
-0.12991037097821503,-0.08379695245934922
-0.12761900512113591,-0.08049197098952222
-0.12888800897706448,-0.07576424517924488
-0.13317159549839605,-0.06994431391716004
-0.13827550066253014,-0.06434914710690079
-0.14281861577370267,-0.05961377419021176
-0.14488257492180404,-0.05643503628818325
-0.1441863897936926,-0.05498470658282656
-0.14199347139608368,-0.054579502134194824
-0.13948131659087995,-0.054342500790645766
-0.13825378399030067,-0.053300924146956356
-0.13874069108952966,-0.05123473933116096
-0.14037785063478217,-0.04863101847553774
-0.14261565476370394,-0.04645009306317865
-0.14453993560226713,-0.04529015157679624
-0.1461714773806231,-0.04325521627435898
-0.14795397328399032,-0.03802702971292979
-0.14963234692387117,-0.02925399412475033
-0.15113720317958826,-0.019085985971943074
-0.15224827635615784,-0.015867457250284003
-0.15267385862128735,-0.02480102684384713
-0.15306134884022957,-0.033549031167930836
-0.1541356537284046,-0.03132710882038988
-0.1560001378360396,-0.027447357332369044
-0.15863323145133718,-0.028866081929484394
-0.16153096121015678,-0.029782041513513616
-0.16394958644602975,-0.029062827090409082
-0.16588976509810577,-0.030252149982865767
-0.1675482470648808,-0.032913722703141315
-0.16905067366921053,-0.03529340082953665
-0.1707150940322999,-0.03697478907904208
-0.17243536438923568,-0.038526601772723455
-0.17392166928345532,-0.04041604601887632
-0.17515739973688002,-0.042322852958100725
-0.17605514388837515,-0.04407463359014746
-0.17661578381067616,-0.04549743200473118
-0.17696289906519727,-0.04608730758301243
-0.17703896276936124,-0.04562520485109041
-0.17679098400698376,-0.04416795317879089
-0.17624309899189042,-0.04212363157964568
-0.17538928936983778,-0.04061102381071285
-0.17429586635965702,-0.04160268463840652
-0.1730732171123794,-0.04516685928693984
-0.17178949942347246,-0.04552251183139348
-0.1705368024055375,-0.03841035270511419
-0.16943752108768206,-0.029899717197690228
-0.16859772930731048,-0.024908058783555898
-0.16811341685618844,-0.01821763782086313
-0.16805085990202834,-0.007365596560586068
-0.16840419848920402,0.001884068481981257
-0.16911387328887922,0.006150203227870255
-0.17008622064502843,0.006712718847305712
-0.17114854217952877,0.00455159632766655
-0.17202754315802063,0.0022854862617273752
-0.1725102394329629,0.0038685483146412305
-0.1726372037391194,0.00970902616118942
-0.1727395623396798,0.018115364911164285
-0.17358336806617986,0.025860251108375497
-0.17595156401903217,0.028665986347852692
-0.17990069043430332,0.02604971934926102
-0.18492998621965556,0.019489457935512395
-0.1898470484325558,0.010852112297609063
-0.19322159867973518,0.0031132468788142046
-0.19473579316353112,-0.00367580026760184
-0.19469528113249696,-0.010847304316191058
-0.19386316478411034,-0.018675057757740168
-0.19343898014651947,-0.02793937295630295
-0.1936538792656448,-0.03774649938627055
-0.19442207115340882,-0.045990177622818366
-0.19602510855994554,-0.051522727120620254
-0.1983307126757163,-0.05365261000295568
-0.20121586102656344,-0.053900107734395256
-0.20420369551267653,-0.053741982238850586
-0.20541253084748462,-0.05023868095950348
-0.2031184281795266,-0.04124445551606777
-0.19734767151027358,-0.029648860559919585
-0.18949190500259455,-0.018111319919121596
-0.18321013188643495,-0.007417085860512687
-0.18107375345553436,0.0005612247051048364
-0.17843713116875834,0.004133767891252914
-0.17130262681543282,0.0035953425824461972
-0.1646542944196092,0.0013393590042931952
-0.16151795066732574,4.737210490161696e-05
-0.15662549421593905,3.511724160573207e-05
-0.14757841761927187,0.0005778967276957907
-0.13915787165227797,0.0001280921033939018
-0.13428932044446362,-0.0035014775033650274
-0.13105585954342774,-0.009796442596016908
-0.1285659774584815,-0.017005377509120845
-0.12734161979124778,-0.023603100395191447
-0.12654562971715644,-0.02757771572775818
-0.125611149036281,-0.028961582941412208
-0.1244956516160094,-0.029216297584294698
-0.12234635162712892,-0.02974548561106528
-0.11853107425747787,-0.03241896994849492
-0.11320829031118575,-0.03765574588882128
-0.10728148804529516,-0.04464645257411788
-0.10332819939078565,-0.05232722571807465
-0.1040231653566274,-0.05910575789767215
-0.10965181990630503,-0.0645176063470153
-0.11879358448853107,-0.06863227621831815
-0.1277105029211418,-0.07096428711722874
-0.13188116762927415,-0.0714429753920537
-0.13047851880129277,-0.0698566416797199
-0.12469957762896819,-0.06626323021020986
-0.11725650736401963,-0.06237787341530589
-0.11209194909308624,-0.05997143430600394
-0.10944960516323778,-0.059457718200833946
-0.10796011786021352,-0.06046693865176513
-0.10668422348627486,-0.06098536977346999
-0.10377295550392429,-0.05889406151622189
-0.09981540228987472,-0.05540676293797257
-0.09660539735608957,-0.05254757891101757
-0.09447104413542241,-0.051321886074344486
-0.09406345547681015,-0.0534821331289348
-0.0951696968527362,-0.060011471125118995
-0.09657819402198628,-0.06988667569017615
-0.09785821863002729,-0.0800025287431459
-0.0984950046372724,-0.086807711011536
-0.09806946971182892,-0.08950070284738113
-0.09678359625531018,-0.08808575305059942
-0.09488887543249659,-0.08223607114914742
-0.09274874650359995,-0.07400861307546369
-0.09061546649371713,-0.06784532060842653
-0.08864944773944088,-0.06630211263509891
-0.08721183342217881,-0.06551639211446204
-0.08662637821916164,-0.06225996834281133
-0.08724120895392776,-0.061745156885384844
-0.08926252645044323,-0.06744803086967815
-0.09229347012519314,-0.07473500420184324
-0.09566646760284683,-0.08077559218643436
-0.09871617062710208,-0.08752062880214148
-0.1004421784300332,-0.0946098180267347
-0.09953555955299942,-0.09846505989270964
-0.09501885769133103,-0.09695267078541199
-0.08682732511414516,-0.09028267322035252
-0.07615974246303289,-0.07846251563429402
-0.06622064012937268,-0.061060209247956486
-0.0604185464218427,-0.04092688609017748
-0.059428506835159094,-0.02698621551985877
-0.06195680321140261,-0.024929019087265487
-0.06416765664466138,-0.026303913940367286
-0.06259483520118986,-0.02327655070168384
-0.06108275133571958,-0.022202551090574733
-0.0629228237236469,-0.027133563757517742
-0.062443198853894634,-0.03324539012777435
-0.05611246751367177,-0.03876428208638528
-0.048387541568506935,-0.04370202653318193
-0.04207468493510075,-0.04659686807734132
-0.03595643509391392,-0.04942018152651689
-0.030779752180311964,-0.054952526592144654
-0.0290776776516673,-0.06237981486224829
-0.031071933758804873,-0.06993379005778752
-0.033737170673799034,-0.07455688871366982
-0.034241807509546925,-0.07237503434504518
-0.03263296440379962,-0.06322756171384374
-0.029632286784116016,-0.04899202216838435
-0.026642975789767626,-0.032499137224514515
-0.025922218527871604,-0.017584140064555855
-0.02728845198446616,-0.004781996946833945
-0.029575446759601234,0.007421368875241694
-0.03222036384822613,0.021092013649251506
-0.03406730152837839,0.03929735729510283
-0.035045376919241866,0.062336856591695515
-0.035726583024080494,0.08906675942033367
-0.035718724641396256,0.1189292323032682
-0.03480553995217271,0.15053056109148655
-0.03270997591768185,0.18374677379378265
-0.028889148351588387,0.21886116071970813
-0.023515591879814855,0.2541747018161246
-0.016981918500476798,0.28799235441249
-0.009596858437696785,0.3188935372816012
-0.0020368995140003046,0.34528349049073387
0.0048438674443649545,0.36692913706847424
0.010238793083839811,0.38403122461227834
0.013457926811069361,0.3958672548231866
0.014146685393330867,0.4020132045427694
0.012555611092854834,0.4024933560834946
0.009283454585166585,0.3958122770992886
0.0048521042734349,0.37757605340878053
0.00012087479260152136,0.3447460776267201
-0.0035225880763754837,0.30074693351825693
-0.0048531415609827456,0.24949939179608305
-0.0032350368681977135,0.19049865652047504
0.0010776145355763601,0.1241139021386313
0.006130896377380885,0.0517409441372898
0.009594986178528355,-0.026339682538311246
0.010879573824983104,-0.10803904679634682
0.010272539068249556,-0.1909730938911479
0.00914511427529441,-0.2750663987749243
0.009468180480696349,-0.3575415231445
0.010989449806234432,-0.4285525220633063
0.012650649883955107,-0.48120467526897226
0.013660007428108346,-0.521838748985594
0.01278282645219039,-0.5557516147529731
0.010348993218640285,-0.5755921683376712
0.007602878550650074,-0.5765538213213547
0.005304635403573783,-0.5621690049589841
0.004543816559789624,-0.5342867582846529
0.0057547565434475706,-0.49490180072713386
0.008687588191696417,-0.45020765906208615
0.013277270436684781,-0.40790443820268607
0.019186027033885236,-0.3724012686699879
0.026233216775927132,-0.33866200381888684
0.034309738140650164,-0.30199382438827915
0.04273045075108407,-0.27031237309740186
0.050795773267380405,-0.24813408651802268
0.0579756869795556,-0.22530199066125536
0.06390612620539121,-0.19567416640689717
0.0689764291149025,-0.16608633863821096
0.07374130199668548,-0.14057110523961422
0.07805393806401242,-0.11492754004662252
0.08156325458405304,-0.08821360544633118
0.08364972782584867,-0.06425913005393205
0.08351829520315038,-0.04499822383163424
0.08119921378417944,-0.03113912849295358
0.07704894966511831,-0.02312232018485201
0.07133054886858325,-0.0178798959821669
0.0646276250984625,-0.01150338946191423
0.057387045951649146,-0.003621387310988408
0.05008759462378138,0.0052505926218109995
0.043766843703746325,0.013946961890790583
0.03935343644991465,0.020163832383853487
0.037238860359749285,0.024165636392646763
0.037336773358530424,0.026880972960106515
0.03857657712946105,0.027690939405480022
0.039658385569091195,0.026709672560565282
0.04043526171994885,0.024098340347682747
0.04140812926037729,0.020254878159055956
0.043861221776827594,0.01799379311281166
0.04937056093036391,0.02002090408753694
0.05776468677619834,0.02629807434287593
0.0679590947671713,0.03504496409647715
0.0784419566420237,0.04152573224600416
0.08725972601230295,0.04032820652901466
0.09409610331542008,0.030942969077289273
0.09959019094328463,0.015850546604599208
0.10451002272683055,0.0004404557594940944
0.1100262391934094,-0.008317284609830196
0.11594035848294029,-0.009194480017042268
0.12117765693974583,-0.003946698301329597
0.12468390585968868,0.004582210595519938
0.12541954907774933,0.011666667003368455
0.1242381007060776,0.017129199575827803
0.12358864684312171,0.022618994819792935
0.12692486982714624,0.027856593487496698
0.1374269672730057,0.03358457513906157
0.15427973322495728,0.03870966403844195
0.17299792692563265,0.041253142240170355
0.18515990387348874,0.04227159761840962
0.18582193874265937,0.042845854134913326
0.18747261145833213,0.043261331875297515
0.20058057860941716,0.044225923853711505
0.21117617393915403,0.045015162689993005
0.21008290841488172,0.04466084782360921
0.21216930329532233,0.04420645827214537
0.22521702343913896,0.04520913240481101
0.23715953712052557,0.04959010023191271
0.24127885165443122,0.05883703261570056
0.24324737650773767,0.07074243972846934
0.24535364140215166,0.08117100317902884
0.24629005945647253,0.08586858295097602
0.24792608449487769,0.08371618230817358
0.2509508865139248,0.0848845836415487
0.2541330988945192,0.09693217708685727
0.2571983144406658,0.10610681310725102
0.25975065307255263,0.10193985916566724
0.26190290686801904,0.09744130153997081
0.2643857715144111,0.10114868789813548
0.26733363016049894,0.1045092420058572
0.27090136038803314,0.10424271520833094
0.27507241408352984,0.10578870509964851
0.2794503916251615,0.11017341900074445
0.2838638101729771,0.11507790077462068
0.2881004161158596,0.12028905313290689
0.2918770134409789,0.12612952205932335
0.2949944606643024,0.1320251328770765
0.29710276993474305,0.1375375224225451
0.29782683702957374,0.14248360944752245
0.29688215076975577,0.14645106907817385
0.29402844306908216,0.14924085474515228
0.28920302998119773,0.1512921017429131
0.2825399907888377,0.15323790181811311
0.27434529566283217,0.15564724079103925
0.2652307257243473,0.15930452407049153
0.2561959352321075,0.1651091899613175
0.24834298907945734,0.17368088370278986
0.24252349896215222,0.18512817279232627
0.23933645797080477,0.19863651816115035
0.23892022448386643,0.21182346568782287
0.24114729417314607,0.22215199410577519
0.246214714855847,0.2289890389058662
0.25420585810000695,0.2330517892014553
0.26483571688930807,0.23692217803141846
0.27784656272390584,0.24382087023466975
0.29288140852702016,0.253884106834445
0.3097010431188871,0.2657102327172482
0.32874027339186845,0.27700311546076395
0.3505571597595447,0.284617497369084
0.3752660862752126,0.28846312497765847
0.4029854991001421,0.2899786459384124
0.4337874502772359,0.29044721131053663
0.4674776909504488,0.2919309679852004
0.5039048394991382,0.29447540914041825
0.5425445054402189,0.2969544326397126
0.5819551474561173,0.29897946517250695
0.6205203991074468,0.29973416106953127
0.6570937604049666,0.29936821345252745
0.6906892618914906,0.29877563248098765
0.7207825651725723,0.29806997249257744
0.7473334235176684,0.2974972803455052
0.7701628239897669,0.2970880722755092
0.789685135427003,0.2964873840666217
0.8075686309000233,0.2958473709559369
0.8255515512379135,0.295322208033667
0.8445677049644107,0.2948813875510468
0.8648280867551039,0.2945906793346739
0.8849642321206699,0.2942705961853544
0.8980951925939601,0.29361534739220574
0.8870813461298765,0.2924421956494549
0.8398356729898012,0.290487241232822
0.7697897648776273,0.2874163473909594
0.6930401151457627,0.2830026369118898
0.6082175222482107,0.2771709475048661
0.516048805056384,0.2700911197144242
0.4182289843410041,0.26235311116304266
0.3134208204703797,0.25454531812735726
0.21487984547302527,0.2466339137319291
0.1349982970169868,0.23809564847488676
0.06575983058208602,0.22774305049582771
0.0007458782431930286,0.21464126478870607
-0.05413081821587975,0.199985935585553
-0.09611120732967304,0.18677020082297185
-0.12430595244926225,0.1800613205981084
-0.13516033724283888,0.1822323936174205
-0.13035595538869577,0.18450114490586766
-0.11447523799871905,0.17896733959549901
-0.09098433012865897,0.17247618955179436
-0.06440321529780031,0.16996730692290438
-0.03716213858905564,0.16439266530403426
-0.00944238312299385,0.15267885433079792
0.01882813429159098,0.13958106792914143
0.04855324828386691,0.12757202211679977
0.07912982643352699,0.11689076647222466
0.10879274187477611,0.10841435204785438
0.13582627456939472,0.10004915845971489
0.1582208807462942,0.08883654869637966
0.175849853829769,0.076017889602554
0.18929299472297131,0.06319979693036258
0.19792224186444102,0.050398286534135084
0.2017077201525263,0.03861582194184695
0.20109073583105275,0.028172540707920312
0.1968657642115584,0.01865727652636988
0.19179213819604182,0.010760984313678919
0.18877234248355648,0.00499154749277227
0.18862460367913175,0.0012920602945774486
0.19103923830188385,-0.0005872792684522717
0.1939292989528418,-0.0020223981760297237
0.19438280914724343,-0.004683031965252507
0.19206375942709336,-0.009208749918864848
0.18782766197624534,-0.01582386075852557
0.18320316962455796,-0.024102103077764437
0.18045929781552641,-0.033096785839231736
0.17929355822740511,-0.04274195264769281
0.17830727768090285,-0.05303036858270208
0.17665454886194612,-0.06338732194619631
0.17307241284900057,-0.07334733555059078
0.16805924273145204,-0.08201443992409001
0.16336479009876595,-0.08836525228904137
0.16038890674617012,-0.0921538164919432
0.16069799898129805,-0.09342911539266642
0.16442579019886389,-0.09249527727160364
0.1701568849092727,-0.09046897025747713
0.17559630308350746,-0.08927559851494593
0.17811053411487968,-0.09087309001264757
0.17712768299827752,-0.09630205871893156
0.17362885671646486,-0.1055535689504475
0.16974361162643808,-0.11694421107059469
0.16824166307708702,-0.12799392110633612
0.16929799331071715,-0.13751749313438877
0.17172587173960926,-0.14437956175483246
0.1740632675744146,-0.14696350179300208
0.17416989726878634,-0.1444189560607923
0.17212480471965869,-0.13609749749880348
0.1691539085293702,-0.1226625533243971
0.16595848958316464,-0.10816034953532391
0.1637659958234145,-0.09714776284150485
0.16266471664332002,-0.09161951850785867
0.16200025445255625,-0.09223649955461104
0.1619289632643741,-0.09714802442418984
0.16239258084290198,-0.10307921634962215
0.16355561987518713,-0.10986292795139203
0.16590645597315268,-0.11759149507833638
0.1692379167476585,-0.1247824847107077
0.17316380641899667,-0.1307465158996945
0.1772271936372298,-0.1339834976292585
0.18054166858507328,-0.13334573457973023
0.18210308358608554,-0.13120559518628278
0.18112224867458662,-0.1302941240627425
0.17745807672135827,-0.1312364677827588
0.17187897169873864,-0.13428998526070238
0.16640161571343895,-0.138221215685226
0.16323546397717048,-0.14086997232838908
0.1629194338152622,-0.14241563451565556
0.1648155458350883,-0.14317965070526692
0.16686211831441974,-0.1421181758472002
0.16646420838909634,-0.13881503512990923
0.16359425292392124,-0.132824759142063
0.15952889916140017,-0.12405657153640763
0.15619659828680313,-0.11476391578484606
0.15614866683210604,-0.10742323899930768
0.15929709744903126,-0.10254981392534986
0.1641019906675748,-0.09991784507684438
0.16893919782551134,-0.09791637339412448
0.1715132962034967,-0.09434854958561237
0.17145342096778624,-0.08969556734008925
0.16959817133121463,-0.08562276130166507
0.16652318247125864,-0.08420180356685164
0.16336360547505524,-0.08766960381081057
0.16019750658931575,-0.09479033826655253
0.15651161854513543,-0.10170009891698278
0.15262521980556978,-0.10279698084198464
0.1487396695564554,-0.09512844015653397
0.14546963339881536,-0.08813862005778744
0.14380233958804592,-0.08960357312042566
0.1439979824208294,-0.08833865600531053
0.1461030835733742,-0.07668793523170453
0.14994350494807396,-0.06649195499742137
0.15464334591088297,-0.06507140202215961
0.15882666739083628,-0.06548313760914569
0.16130736720993977,-0.065107543917078
0.16207238396487744,-0.06899401757372625
0.1624624850414999,-0.07853472062163927
0.1656986138390121,-0.09164541604127005
0.17349583798637752,-0.1058929381880271
0.1804101482996978,-0.11439146960126753
0.18089893532558196,-0.11264431862448465
0.17685500946264254,-0.11038894183470728
0.17120491241464592,-0.11650723927752957
0.16729285303526834,-0.12383303740940985
0.168531571606821,-0.12654845766375705
0.16936249514279636,-0.12787347340065028
0.16457214248326799,-0.1265187567175913
0.16143902602030435,-0.1172528414757055
0.16463061995555836,-0.10047556738992378
0.16691003206353489,-0.08472290622520981
0.16369846922339595,-0.07731095946087259
0.15784522699891912,-0.07539649647110294
0.15062993951440387,-0.07520515915886677
0.14242152771286684,-0.07649300817121997
0.1356977417426516,-0.07697530787595912
0.13130795266808012,-0.07691358355429213
0.1287382312545787,-0.07843760713916711
0.12758439300203137,-0.07973467072166815
0.12702137520559542,-0.07970076696035701
0.12751953121264345,-0.07995845372855813
0.13008059363606544,-0.08117191246014896
0.13482973303794074,-0.08323171396446687
0.14195974588597993,-0.08661856952738059
0.1509988597245125,-0.09195076627136411
0.16075266327170964,-0.09836601581056718
0.17026813280703165,-0.10202496227795292
0.17848400635477008,-0.09923233464324945
0.18456022183201404,-0.0900679448632863
0.188191275768076,-0.0766507280585529
0.18941024853694732,-0.06371321459581311
0.18856968899182305,-0.05708270510620394
0.18595346229271328,-0.0577218840796762
0.18205565865148796,-0.06379340778369423
0.17793180962074515,-0.07156890951482395
0.17467839920193948,-0.07568211934981899
0.17325693789947066,-0.07541048817533355
0.1743003274559875,-0.07217578300356406
0.1774417352716239,-0.06698732098459555
0.18192548978728368,-0.06220492373111458
0.18749633566759835,-0.057363516184747235
0.19368850839484714,-0.05094178488991922
0.19970338028789636,-0.043995483888424405
0.20487192444780175,-0.03728613696804463
0.20830798581149437,-0.031979229511984016
0.20943186948802836,-0.02992773456120256
0.20883901139213207,-0.03106101675345997
0.20740598342392438,-0.03484047118138276
0.20551353972394992,-0.041280049806347356
0.20370300304737046,-0.04943865253610934
0.20253647565596142,-0.05763431853401598
0.2023851849557384,-0.06429356067939301
0.20400643260409718,-0.06813225474602483
0.2078744818004407,-0.06860778237182277
0.2133951052085735,-0.06676950370496562
0.21974116043149017,-0.06415056600269135
0.22632096692682202,-0.06101426352979469
0.2323033640882035,-0.05752334145341456
0.2368757633285535,-0.054045056826846294
0.239469896863513,-0.05060214031196214
0.2395259577668907,-0.04808142566897718
0.2371398239905787,-0.047339505421675844
0.2338019370942579,-0.04783806241303785
0.23120480910664865,-0.0489917054313342
0.22995937275711995,-0.05065845877514065
0.23011650118724378,-0.052587911290578375
0.2307407705838934,-0.055086369137201364
0.23046921310899987,-0.05850725925110193
0.22960258189106134,-0.06202205993415028
0.22894321618459054,-0.06440232473300503
0.22907953776533607,-0.06430994232787905
0.23094967406091915,-0.06047888571875716
0.23439754856948936,-0.05321147566930283
0.238697754351575,-0.04428890557421396
0.24363334246933063,-0.036945052420685784
0.2484404695078433,-0.034720269859080326
0.251854222077472,-0.03851655175278805
0.2533894173695501,-0.04711950153273023
0.25418801775773875,-0.05697411679912389
0.2553218605288051,-0.06350250852995241
0.25583451721912487,-0.06580558321564288
0.25503991444360025,-0.06477439311968337
0.2539639097068285,-0.062081321362975624
0.25321181238621815,-0.06059658221715798
0.25269511653468,-0.060044068127941164
0.252578186577593,-0.059040165173697035
0.2526931027943428,-0.05771471332598209
0.252568734014643,-0.05571478458313053
0.2520783288471587,-0.05416604047774862
0.25116823483902945,-0.055243156823651926
0.2498373186593769,-0.0597134862073472
0.24820116557419364,-0.06803588052186492
0.2460904763352175,-0.07967556516732549
0.24335739069292958,-0.0922059215780413
0.24020982707498717,-0.10183421034509811
0.23685842573746402,-0.10481960208329223
0.2334757893581043,-0.10012185558541001
0.23029281383884986,-0.08942255498177268
0.2273885494540383,-0.07783031167758504
0.22478785583239816,-0.07147908413328595
0.2226481773429193,-0.07158182056845179
0.22104285978367236,-0.07664740368825787
0.21985957517340776,-0.08305450298721123
0.21893556165757985,-0.08556340853057802
0.2180377792588776,-0.08419796468862134
0.2168298820611813,-0.08116945764308693
0.21494745452855457,-0.07790732349879005
0.21202175309911714,-0.07717732816846802
0.20770957372149465,-0.0786878609704901
0.20180343696578965,-0.08069333902901657
0.1943459325864332,-0.08379364137788355
0.18552265293021825,-0.08749427214712144
0.1755154550218556,-0.09024758204330739
0.16465501836608354,-0.09188770508795169
0.15347100080022427,-0.09371709946626959
0.14251043519498655,-0.0965446691912136
0.13227259340635344,-0.09848757888817118
0.1230927389808428,-0.09805856303383595
0.11488545773725264,-0.0968439733356184
0.10738969609090046,-0.09598877898751192
0.10052831689000383,-0.09482145349266499
0.09410956188786725,-0.09323551739671077
0.08775693670787386,-0.0914548136745053
0.08112206248338533,-0.08922198396212098
0.07376706880455856,-0.0866915979454903
0.06537812533123893,-0.08426086034653811
0.056145638965954904,-0.0821071820038235
0.04636459156335425,-0.08039754354128807
0.0360503673947237,-0.079004549903986
0.025244682568837995,-0.07747334464002097
0.013967833714814045,-0.07520448306864926
0.0022161894629362817,-0.07165954919441264
-0.009613649202054299,-0.06693890359973538
-0.021002294861641933,-0.06182732231639074
-0.03158560547321927,-0.05791788936060273
-0.041007717340479644,-0.05685788241661403
-0.04916902771581385,-0.058756282525335615
-0.05632323341385573,-0.06254631269989591
-0.06301419765365097,-0.06584988576481088
-0.06988727721479698,-0.06578152972943495
-0.07722347392858751,-0.06163891547141203
-0.08498795156454289,-0.05394485260781901
-0.09276725610534844,-0.04402685333188967
-0.09996822594652083,-0.033940743118426625
-0.10655915623795337,-0.023605092635380576
-0.1126736954911482,-0.012022327264188037
-0.11834454794587669,0.0014228053164316444
-0.12375913499389715,0.017817869784171506
-0.1287994319031532,0.036850061342342935
-0.13329157594127342,0.05746302901652289
-0.1375024064536788,0.07943891551562036
-0.1416607071719174,0.10229583077211214
-0.14581414520255262,0.12581941603113203
-0.14996742089210555,0.15019547406884362
-0.1537809704005015,0.1749845080381811
-0.1568221514436084,0.19992844653739625
-0.15903537963000572,0.22542294888599454
-0.16046400447276266,0.25223686366848735
-0.16122103455615913,0.28205570567170485
-0.16156236359134232,0.31642657817784864
-0.16152416804444314,0.3549608173981183
-0.16111480346735849,0.39561839410551325
-0.160547179007407,0.43413196257745024
-0.15999048953998057,0.46499780607159336
-0.159602410856853,0.484446210802708
-0.159513792445337,0.48910936809100597
-0.15959672873028566,0.4755341022298334
-0.15962450602538614,0.44225860059591265
-0.15943813634446105,0.3896317183997419
-0.1587770638010204,0.3217697720735381
-0.15728007992745308,0.2499306802474259
-0.1546880230057508,0.1821991306849721
-0.15094843494784987,0.10998822247674235
-0.14634216891004886,0.0261297549314022
-0.14173326998712218,-0.05739683661610552
-0.13811261773406056,-0.13366360141527095
-0.13589954379330318,-0.21439847166947357
-0.1351903915350541,-0.30383267110919965
-0.13565076832160608,-0.38685685120906643
-0.13657736244836727,-0.45229210141780224
-0.13768454233006572,-0.5036540327707779
-0.13855740868117175,-0.5423500319658162
-0.13817387861856073,-0.5652617154327401
-0.1357448208189011,-0.5736241977946821
-0.13099786227175067,-0.5682273856949477
-0.12435581784955411,-0.5490888665084624
-0.11778058580281171,-0.5206171993648213
-0.11348464900837697,-0.4878638391993297
-0.11198016518841493,-0.4542819101882446
-0.1128296997986372,-0.4229742590752116
-0.1143450363405251,-0.3942423392561644
-0.11422001748715051,-0.3669341533289026
-0.11234497454025359,-0.3419409056734441
-0.10950316041036925,-0.3193827365550187
-0.1065529162664855,-0.29750295715074804
-0.10494001825464046,-0.2748257425202082
-0.10447691494907563,-0.24946131839425653
-0.10424139998461253,-0.220195166949623
-0.10402400803008947,-0.1892290582120792
-0.10329760116919369,-0.15941472886275446
-0.10216016680096929,-0.13133301430711944
-0.10122891041559802,-0.10558426035562934
-0.10047587120660524,-0.08263268066763509
-0.09994027462978117,-0.0621700093668379
-0.09965520521051069,-0.045429600139363244
-0.09937949001267513,-0.033284910846218624
-0.09913083613934663,-0.02395016710922568
-0.0989491132863482,-0.015676477834354056
-0.09873536963280324,-0.007931954510005714
-0.09843894779327225,-0.0004868213797272855
-0.09790406650899504,0.005236542562555519
-0.09695258596137155,0.007416652601674276
-0.0955824198696774,0.006815179671590192
-0.09390384137026961,0.00505686884779607
-0.09220417264311451,0.004045753018438465
-0.09076183110181088,0.006191142543256418
-0.08943856058232559,0.011677433230054698
-0.08776066610015869,0.01925257734856611
-0.08485183370160931,0.027266574221579153
-0.08046601731277209,0.03348956750182437
-0.07681267315622874,0.03755267610275601
-0.07553229031302423,0.04042656710852485
-0.07411315009703147,0.04353381449042887
-0.07068977870536648,0.04873942400389455
-0.0677073400377821,0.05581598462023662
-0.06668290436767496,0.06326584311299423
-0.06597480732560985,0.06942344215450416
-0.06490375196282504,0.07210823224625862
-0.06437844605804265,0.0708801127520872
-0.064568111935466,0.06634894514445792
-0.06518231693513055,0.05890700127534666
-0.06632803280964615,0.04960308513450177
-0.06803632534673322,0.03892068053188193
-0.07010933540557333,0.027211315153742435
-0.07231522663852592,0.016054745663011946
-0.07433717273956557,0.007048563758769587
-0.0757884903104811,0.0015750713793562605
-0.07616943070018614,0.0009038044661463928
-0.07477237903972786,0.00509706829296089
-0.07119788303512353,0.013685285418262638
-0.06600833840968473,0.02664367449945703
-0.06009029793270508,0.04344988709034359
-0.05407220077998424,0.06292786376920824
-0.048899722545850684,0.08367550499573985
-0.045762611585376346,0.10361002927047207
-0.04509556503705244,0.12036304565991385
-0.04585080200117753,0.13199529348951755
-0.04680183149280785,0.13704047576753123
-0.048055996459022254,0.1350543175557155
-0.049764114964148336,0.12737868775138164
-0.05171067992492566,0.11775362022844499
-0.05401153916666421,0.11057970887159542
-0.05621870160600137,0.10823762426084486
-0.057737026397308766,0.11165302007954038
-0.05878035530917291,0.11954320812285171
-0.05961939399641521,0.12912372348171255
-0.06045311205954062,0.13971747510087487
-0.061731785568709514,0.15014944577459366
-0.06374343201673288,0.15676954178312755
-0.06653182566198022,0.1578379129850783
-0.06990163255271697,0.15551736529100804
-0.07297455492410303,0.15159635456521203
-0.07381782365845738,0.14431414317739016
-0.0705748785418578,0.1337711174842732
-0.0629730051045237,0.12570431671922433
-0.05205331961406151,0.12396958558027067
-0.04069030644143469,0.1254501059821998
-0.032329430518297377,0.12761434360228308
-0.02777120949097646,0.1326878789575733
-0.026380270891405374,0.14080748279154154
-0.026364882620619468,0.14824066753666365
-0.025004182286608598,0.15242960563073282
-0.022241107531732876,0.15260699391773716
-0.01907467198892825,0.14921895576896066
-0.01601524823909313,0.14674205185222833
-0.014207292417995553,0.1504648920185741
-0.013170191884665682,0.16082403126145722
-0.011665531471877322,0.17611085161456494
-0.00972279454492505,0.19246174727148893
-0.007203034344750234,0.2045307959207512
-0.004302914877479855,0.2120975683862972
-0.0018415166153523507,0.21680156995121513
-5.08759613469962e-05,0.21917513653429488
0.0008723209971124303,0.2213169712434744
0.0006220589651947154,0.22360446548975663
-0.000695182551832136,0.22550535386937862
-0.002762225966335878,0.22871795694805733
-0.005196383360724133,0.23452379314230204
-0.007676518410553325,0.2435832807504768
-0.009908364141912226,0.2558674346999029
-0.01156983069943096,0.26792459154177534
-0.012381644338577004,0.27582554369814316
-0.011967250384888974,0.2789259188656878
-0.010068746038088215,0.27795434461543655
-0.006865441382160253,0.27578771193373686
-0.0026913436963494526,0.27644388865740904
0.0021278566689559093,0.28002055664561637
0.007078989252061016,0.2850731007194652
0.011545893771294,0.2900701490163093
0.014940450109312215,0.2924338602490177
0.016694226065813438,0.2923726833965812
0.016494168519243606,0.29140236284109067
0.014585644855389348,0.28990088224062727
0.011412945102138649,0.28881506146854613
0.007184607478463447,0.2879778043812942
0.0021851739217051483,0.28633331515832233
-0.0032234005465142605,0.28392177729414064
-0.008664268665853257,0.2807067798107108
-0.013338168406430198,0.27684496746777026
-0.01634355809510948,0.2730923150856246
-0.017057620396311646,0.269864569687323
-0.014950793424664497,0.2674671643586696
-0.009793479570302386,0.2659808738315438
-0.0018618231571968205,0.2649302090758786
0.008077549809760033,0.2634324069021648
0.018810383221117024,0.26052582642461203
0.028866203688705648,0.25583156992354017
0.03641621369484475,0.24942662573335483
0.039222174246690555,0.24182964593111783
0.03558394628085509,0.23379335291773334
0.025420291873738017,0.22528727378492971
0.010752472111951386,0.215975849574212
-0.0031916980437167383,0.2055988689843552
-0.011204307092907484,0.19372922659273145
-0.013374151730386733,0.1805468548756118
-0.011520216406367178,0.16652590757257701
-0.0069392930213589745,0.15184611479582708
-0.002861539114573274,0.13686103074671155
-0.0016595576122205088,0.12190419907563846
-0.003370539522895827,0.10726725970864408
-0.005595737090670324,0.09363928650446741
-0.005516169012162772,0.08170383863592619
-0.004658409791366444,0.07182044712184084
-0.005031577859858549,0.06416938533410035
-0.00605096580575542,0.05850935509546205
-0.007878209842029386,0.054225875434557036
-0.01006088857185722,0.050654982364177634
-0.011214023995102525,0.04675123883869029
-0.01160368193505603,0.0408843371634479
-0.011597982768484581,0.031645476618366926
-0.010779663383395826,0.018607508663849914
-0.009154440232497842,0.002507270540042824
-0.0066582268291181515,-0.014014511114436804
-0.003059370564966897,-0.02783523215501946
0.0014004549792411424,-0.03794371280107961
0.006414824311508814,-0.04452008696635222
0.011850729167832662,-0.04913037369024283
0.017317834405689417,-0.054293133535725055
0.022064937633667323,-0.06027195578008233
0.025076982505707123,-0.06682023458937181
0.024916924571096143,-0.07460711811342075
0.020371927371841323,-0.08237505437064246
0.011505063531944987,-0.08643976931701063
-0.00036411927334777995,-0.08520709178225354
-0.012245960082038184,-0.08381378307784838
-0.02070893793110655,-0.08655701707025407
-0.02451091009419942,-0.0888753525758655
-0.023894765908086785,-0.08718679024386841
-0.020797556507319615,-0.08458691713663312
-0.01812898306683863,-0.08235969539572492
-0.016180234373776844,-0.07904787249731314
-0.014365789022789973,-0.07526217199942599
-0.012453796804568436,-0.07267012887579312
-0.009557429513863172,-0.0721506363075899
-0.00657282817598777,-0.07401834665486379
-0.004988791721052182,-0.07830437474462308
-0.0046832641447886025,-0.08444071522764066
-0.005582713642478422,-0.09149056006291394
-0.007248443505957352,-0.09905387386049279
-0.00843404005341647,-0.10681861674186538
-0.008320667676105186,-0.11424795950999277
-0.006264471699120367,-0.12093648526331219
-0.0019178869861199094,-0.1261509661062085
0.00402594761139967,-0.12919197964835635
0.009614743567109871,-0.13008918310325784
0.013193596095648474,-0.12913660783631908
0.015673638908607478,-0.12682317173500363
0.017871087888567092,-0.12418926996274648
0.017876951197141503,-0.12267855367174091
0.014724543150549007,-0.12359766965639983
0.010182953963772327,-0.1274827389040664
0.005569988715899216,-0.13377679174462387
0.0008697468730798622,-0.14020313088691416
-0.0032450601595400697,-0.14414548456391113
-0.005310649675859679,-0.14508178178559522
-0.004862501335953433,-0.14372392663123448
-0.003194783906057828,-0.14219179328267892
-0.0017216159103690684,-0.14325459975441132
-0.0006971692251002812,-0.1467977878729711
-0.00039988216589053227,-0.15138259338054663
-0.00116376992358429,-0.15530698934054926
-0.002883621825406232,-0.15617380184820143
-0.005998188819269134,-0.15399296984661806
-0.010709697370255358,-0.15011727361990646
-0.01586328151866878,-0.14560379488014005
-0.020217729901159564,-0.14207666052184562
-0.02312538703983145,-0.13966765400452752
-0.024098394075424454,-0.1374549444842855
-0.02347290377945842,-0.13490825632820813
-0.021991759136865123,-0.13115353942095695
-0.019548911383743157,-0.12617914414253395
-0.016163401595445773,-0.12061660908018165
-0.01250843299746927,-0.11461049707453287
-0.009071944626302557,-0.10852292386685541
-0.0063470830719991244,-0.10250603434286998
-0.004604778537292916,-0.09654652546888466
-0.003005225703639615,-0.09132734678560728
-0.0006055852511291579,-0.08742676592658528
0.002484698181900492,-0.08480441097242178
0.005765977924353703,-0.08300890832225931
0.00814747319197133,-0.08059884089564691
0.008279267110319514,-0.07599779372791941
0.006193085241027313,-0.06906857608831113
0.002590556176271386,-0.06059120133119245
-0.0016004393920240564,-0.052473654067758814
-0.005066262287872319,-0.04711171500253982
-0.007543838669334314,-0.045000787732737794
-0.00938500070016615,-0.045649805506199514
-0.010920004670574957,-0.04800904461554368
-0.012748589836292732,-0.05032615356510168
-0.014669115617943802,-0.0523737480375383
-0.016009109451106306,-0.05442125455542904
-0.01631864019143071,-0.05600282841546286
-0.015022766951073886,-0.05712417800663383
-0.012111280065960715,-0.057535156473007824
-0.00799999073343305,-0.05714396876813778
-0.0029524777527816953,-0.05754851190185457
0.0021977625075560977,-0.06033930005906821
0.005811674024104715,-0.06567698696025807
0.0066369869560299576,-0.07291918859447301
0.004904815887207648,-0.0797288997307743
0.0017319654513224454,-0.08328283522177625
-0.0010303841649950303,-0.08325323982641705
-0.0020595042687295622,-0.08051084116917599
-0.003668271424023906,-0.07686622309316712
-0.007845145496582568,-0.07488935304301955
-0.011391808931366027,-0.07467788142242977
-0.011979570626850263,-0.07515636339175373
-0.011945289295985928,-0.0753037068315639
-0.012682663850151325,-0.07346691252930217
-0.013262920942621523,-0.06975286760853035
-0.013843659650435717,-0.06521409672788937
-0.015223997644919248,-0.06026467981312919
-0.01753892789472614,-0.056135392229153355
-0.02103577989976538,-0.05433017760745297
-0.025929434187670377,-0.05588821527213457
-0.03173077925157919,-0.061592500624555804
-0.03773138332302306,-0.06902038048919938
-0.04334701037173145,-0.06874343857928772
-0.04780197981324728,-0.05545200780849071
-0.05025215513373117,-0.042381219120583305
-0.050074254734858936,-0.041086037667307895
-0.04691257103170594,-0.041838610370097
-0.04109423413981454,-0.03741900408295388
-0.034201094258659026,-0.034428778587395285
-0.028059877301335762,-0.034530739240266936
-0.023407022174576332,-0.03426846680300526
-0.02036968743666552,-0.033954624087334496
-0.018151258341004155,-0.03413827322308823
-0.015502989875586884,-0.03390111108673815
-0.012727325720728155,-0.03274270010638224
-0.010586943162322454,-0.030911121788276482
-0.00958329298826938,-0.03015261213881434
-0.010480405743640217,-0.03199377865582084
-0.012887963099725732,-0.03528990353428478
-0.015770370142813187,-0.03872471345573434
-0.01849614290639105,-0.042488784411372896
-0.02022470210520633,-0.04596298675945461
-0.020550012251811266,-0.047628435362355816
-0.019629903365976337,-0.047061085817924245
-0.017646138075219482,-0.045597685603709345
-0.015042413183738295,-0.0444997282001391
-0.012189018437802715,-0.04326966535248544
-0.009469066402952904,-0.04146804446675188
-0.0076787791038083605,-0.0394929725506786
-0.007506480614201452,-0.037347820781018594
-0.009266525178592474,-0.03527065205142992
-0.012752209036869983,-0.03375398297998378
-0.016605002751011236,-0.03262859216555714
-0.019231388514430025,-0.03160787520118614
-0.020188471021021292,-0.03052460059958712
-0.019630387091234564,-0.028977182565267864
-0.018532319860501884,-0.026580197486595243
-0.018252462708771462,-0.023140697365545748
-0.018547461362308462,-0.018713823438150978
-0.018533414986389683,-0.013902827840328298
-0.017312206384706826,-0.01017634886152733
-0.013699154186284462,-0.00907427379801215
-0.007924662056337428,-0.011081304143077012
-0.0011088202338150775,-0.01592461288259229
0.005610360991475457,-0.022301873234775556
0.01074797287799739,-0.028416512774700045
0.013772245456460048,-0.03384134144988951
0.014905812810406956,-0.038629196918716996
0.014482963314935635,-0.04282955922753838
0.013218122449013233,-0.04695767205235424
0.011219851276844032,-0.05068154387006791
0.008369142865528196,-0.0535597736634734
0.005065748840242705,-0.056216125213490245
0.0016188488663601889,-0.05914295467307814
-0.0014513893599028757,-0.06251326810652656
-0.0035816689950787534,-0.06632312705242079
-0.004970613196475593,-0.06944381747010749
-0.005953256920682676,-0.07055129947419908
-0.006574136948165745,-0.06951303919104425
-0.007023750153339919,-0.06660399202178638
-0.007431653851031358,-0.06258277169883598
-0.007826713507891447,-0.05861770255365165
-0.00851025150151125,-0.05480759095186149
-0.00967234778561898,-0.050889513097092616
-0.011047774989672826,-0.04685206129207779
-0.012354039104482534,-0.042447995571192595
-0.013500844529997781,-0.038033625897998115
-0.01440598577626475,-0.034297193981484175
-0.015162090328158821,-0.03152745463546661
-0.015949637294757013,-0.030082932427620168
-0.01666769276206123,-0.03014491596029331
-0.01723263395196107,-0.031622482814973984
-0.017789489017664306,-0.03456364941661834
-0.01843606951994636,-0.038871079792268184
-0.01924379047845663,-0.04419482384676557
-0.020271029722441356,-0.0500199289520933
-0.02135283169191084,-0.05544905795369148
-0.02227930238844977,-0.05949008242240269
-0.023025858160938002,-0.06149640933305827
-0.023578551601262526,-0.06108956979499034
-0.02392452891918616,-0.0583496601780521
-0.024109444229092312,-0.05373831664334533
-0.02407807237478254,-0.04761907717247534
-0.02376875881086793,-0.04067506955223396
-0.02324089671005412,-0.034201339712268866
-0.022546243953474005,-0.029494960454886813
-0.021713689577576037,-0.02756562405919353
-0.020778852552365213,-0.02896635165210559
-0.019701483123297413,-0.033144062987087594
-0.018428254134141488,-0.03899504731215159
-0.01699406772633457,-0.0458222974426895
-0.01545183234244398,-0.052534742236457904
-0.013864899065935616,-0.057388982490484554
-0.012323153806562192,-0.059001182845356014
-0.01086402877607974,-0.05666452820888885
-0.009507643816595407,-0.05094165597785161
-0.00830128318508574,-0.04498341072778799
-0.0072728518413014516,-0.04236910587733038
-0.006444565596526564,-0.04401048185483156
-0.005829133224516077,-0.049340637890572046
-0.0053868121440632044,-0.05577549307715717
-0.005061871301948423,-0.05977267640893948
-0.004815250015187627,-0.06141530123367127
-0.00460452305635601,-0.06219589645656503
-0.00440024356243189,-0.06359813087315401
-0.004179060398422836,-0.06776841595483607
-0.0038838779455125875,-0.07363427407596054
-0.003454467837889599,-0.07819331922079527
-0.002848293407000502,-0.07862691398755453
-0.002014036773130697,-0.07185560608833169
-0.0008976786368093857,-0.05797011379712737
0.0005608729672585827,-0.03999943564256814
0.002453404786267553,-0.022801502067086477
0.004818705661673725,-0.012000473312184505
0.007530974772771947,-0.009060420001914933
0.010304250613451034,-0.012305923803962495
0.01263931071109245,-0.017619646227677834
0.014203223758527265,-0.01924466304468418
0.015458216513708893,-0.01596242490928395
0.01676372949607315,-0.00849573731084695
0.017370264615212933,0.0028494675894345472
0.016814871790695816,0.01630035538724402
0.015894280476516878,0.032671548983949576
0.015225609314658084,0.053260905645362004
0.014663601920495664,0.07581270913505056
0.01430050794444897,0.09841639288888242
0.014480945661608126,0.12025048559467084
0.015061434354334881,0.1409721763479909
0.015278614604697156,0.1637562256980687
0.014430835305956524,0.1923514401234599
0.012465612950830266,0.22658487215990267
0.009696771555118151,0.26485268509437543
0.006953712383355267,0.3038542937105785
0.0052718413938651,0.3389502285617445
0.004766308272678635,0.36908549219827486
0.005085014787261589,0.39453287007683335
0.005636841583625968,0.41503181439197656
0.005545158887515413,0.4312289940203015
0.004731010625473865,0.44166398962509035
0.003480199868018396,0.4438458907940486
0.0019192367568347075,0.4366935207154493
0.0003654120145256417,0.4189121122454698
-0.001333254855431369,0.38997916407024574
-0.0035828789364379123,0.35030661805098595
-0.006457134425236499,0.2996700075925109
-0.010053471932857067,0.23837451588308706
-0.014254450615998487,0.16772681008674759
-0.018667906103471212,0.08963586933856763
-0.02296934219981129,0.0074196736633860925
-0.026800839036274674,-0.07510243124495113
-0.029908576872177777,-0.15513303566711986
-0.03223959684266721,-0.23047200621528197
-0.03386622498179605,-0.29997344827849737
-0.03497242115766632,-0.36308007443097406
-0.03567613027924089,-0.4178360297830166
-0.03614044130926642,-0.4620228288360451
-0.03671097667874219,-0.4938111095702641
-0.037703666814913286,-0.5117953872696593
-0.03934459910007484,-0.5171739034201885
-0.04168687859230922,-0.5132189587695496
-0.0443389127079091,-0.5045339710867875
-0.04675258970258316,-0.49501541093371
-0.04862879451928699,-0.4828339159088604
-0.04965771701521863,-0.46504571212783896
-0.04952389572680744,-0.4430799462131988
-0.048119030552344,-0.41685704168479193
-0.04540851557359453,-0.3833510575717249
-0.04173883939013309,-0.34368180535368004
-0.038278710948800324,-0.30660806779383803
-0.036198347932324716,-0.27728871416461953
-0.03574118896474207,-0.24525910322672392
-0.03644459142803576,-0.20278793428511607
-0.036722545417650944,-0.16154950039296925
-0.034668894225171026,-0.12939606349008684
-0.03005905142745875,-0.09716020500107682
-0.02353439060236437,-0.06108391253795116
-0.01640564743429091,-0.03048870429997827
-0.010527948555342038,-0.010575369772435136
-0.0060869152708542896,0.0015951690325808029
-0.0025360214601945477,0.007395194261486447
0.0004922331361793402,0.007310969645140189
0.0037927317983973176,0.004483528572688475
0.007104083284072398,0.0010744041733070657
0.009642584023526059,-0.0017248913361006368
0.011275673298438024,-0.002096346993151139
0.011772242046639712,0.0010870767504277269
0.011383296077480539,0.008661686017652772
0.010892271138619444,0.020140184810235835
0.010845097255178713,0.03147780645540284
0.011714620494284228,0.038271154529927326
0.013462516176554402,0.03918981785761759
0.015297201847739209,0.03485700690204939
0.015779780100084018,0.029439673290824298
0.01340365189524967,0.02839805830128435
0.007855392793884457,0.03209609544863612
-0.00019633590086526027,0.03898059509575412
-0.009007150159544272,0.04689367871668019
-0.01641742986252985,0.05220989395325118
-0.022052890193371536,0.05527962627194893
-0.026480226283972768,0.05798330375226453
-0.03077974043194287,0.06038400626333851
-0.036460710097836614,0.06334544828555246
-0.04304337164024534,0.06638084911629706
-0.048979348498500955,0.06795738892167863
-0.05265930069502281,0.06836644755777554
-0.05199458185496233,0.06786004348932495
-0.04638377750328628,0.06647234864173945
-0.03617249016705176,0.06485164082549721
-0.0215567262796675,0.06306535858980272
-0.00330655205685134,0.061078536322629724
0.018308525744641455,0.05940967777679942
0.04314915016946718,0.05851065649412646
0.07006249695693281,0.05887525395711624
0.09802973276544956,0.06110897150142114
0.12649079293041193,0.06551795859186334
0.15534850644149373,0.07220695370263051
0.18606130952678437,0.08111224051381276
0.2203433824502063,0.09182712148609781
0.25824147030909667,0.10365931774157561
0.29898977974173635,0.11549332615933802
0.3406991777922696,0.12558043431337731
0.38073330342855355,0.13222026588747923
0.4181079803987379,0.1346141194753971
0.4522046648953333,0.13291689613500893
0.4818278439932047,0.1287823598279608
0.5065265591721134,0.12439152325746498
0.5259047970268248,0.12037320633515541
0.5403082433161804,0.1166784270079702
0.5525851831616486,0.11267304273938561
0.5653239117336072,0.1072987033299437
0.5779329464161731,0.1014421136980763
0.5873380829526416,0.09673786182817636
0.586449455151842,0.09442243123900704
0.5672296865821036,0.0959120649669782
0.5276408853563044,0.10105670031011123
0.46920191130779393,0.10842799113733993
0.39693451338038593,0.11630487204780658
0.318378447065305,0.12259930851623325
0.23531837763362862,0.1265248072796132
0.14757875524012137,0.12852280980450492
0.05616907007517526,0.12987937449724218
-0.038996732264661875,0.1324509024954293
-0.13350861919620324,0.13658874393177295
-0.22082364093496837,0.1420154330982802
-0.29699634499152416,0.14867044585268982
-0.35781759408076325,0.1560313896887154
-0.4010099336713167,0.16447478855270078
-0.4269863312027379,0.1744976984571889
-0.4364206095088077,0.18521637091260032
-0.43130287490372776,0.1957541489129344
-0.414127331753546,0.20555925096090857
-0.3875354245049402,0.21403353337223588
-0.35530699676249905,0.22147952362406906
-0.3212208709648381,0.22842881316362887
-0.28863193909322393,0.2344653323846867
-0.2595875177695119,0.23910206253349514
-0.2327634689567366,0.24195601506185146
-0.20589785006086384,0.2425426645507567
-0.17894357357231908,0.24118769591934375
-0.15247736843277837,0.23871763808892363
-0.12836943137069248,0.23600192543906082
-0.10912954152823422,0.2341221387886857
-0.093786355720825,0.23373324028030684
-0.08054897783375367,0.23504640274511257
-0.06894439323610549,0.23801262318282831
-0.05789900142470877,0.2423177147198408
-0.047558419302997854,0.24799091241693444
-0.039065158731370744,0.25509015669540147
-0.03255938194652783,0.2633311846793787
-0.028289055343867206,0.2724211125076727
-0.026328890364432832,0.2818046356209023
-0.025806067483611576,0.2908487173643133
-0.025324766975545965,0.29937506986849327
-0.023531110761701963,0.3071323971910013
-0.02019074214690856,0.31340037454587105
-0.015992868638726135,0.31728391901812664
-0.01250369830890946,0.31752479044433046
-0.011541045234173587,0.3131736042172361
-0.01307301766403047,0.30492781373114164
-0.015932267069275394,0.2949435458954914
-0.018217766503263857,0.28710905845388746
-0.017580935981533412,0.2854226552522515
-0.013816104465519468,0.2905177311392789
-0.008058486313290803,0.30019778178569545
-0.0020394380787837805,0.3088502215485779
0.0019465861304331575,0.3097920633944445
0.003758196728744042,0.30182222032979367
0.004524080488941087,0.28701622861800075
0.005554373961533827,0.27017465454364487
0.008657254655940987,0.2578864230048467
0.013711315539960448,0.25056857475087274
0.019398943607515876,0.2457978412320506
0.024473206740607063,0.241238519446879
0.027243384380771587,0.23294618635885245
0.027462092498764072,0.22141980423481578
0.025864242236398462,0.2093322670136209
0.02299284163222151,0.19733189760322406
0.019819343463940264,0.18689940787459502
0.016553171682032387,0.17775272467412354
0.012953637618504026,0.1680938947731454
0.009398158034898303,0.1578830697321023
0.006146242184454474,0.14689888357637462
0.0036958914238662244,0.13502360161615612
0.00273255505075683,0.12297562057797218
0.003265919784598768,0.11080999571989386
0.005142211863443856,0.09856625422355388
0.008239409074308531,0.08660625660233913
0.01209242713958134,0.07513654444420147
0.016126804561685384,0.06467862631434497
0.01973518609142448,0.055838872430413626
0.022216210821177383,0.04887779264823359
0.023015338272708293,0.043850579912581455
0.021932289570656436,0.04037368396389039
0.01907383467895123,0.03771785450374732
0.014850154633708026,0.03521919778110684
0.010318271787957647,0.031955659706796556
0.007453003348068852,0.026598742705644565
0.00812547058574624,0.018194037067017676
0.012817693830042163,0.006816963377822094
0.020585843350393124,-0.006136288517847222
0.02828330957632999,-0.017136997073343496
0.03227967412117112,-0.02249588866982162
0.03198867888174467,-0.02159718036824798
0.028609524337301767,-0.016118327802963562
0.025165915308345024,-0.010721319259309367
0.02561179221678035,-0.011066457877130302
0.030021319685292876,-0.017920135527112527
0.03658305879027718,-0.02939676908322059
0.04303661439767508,-0.041760986443308085
0.04615249639268847,-0.04977678799508234
0.04602225647979842,-0.05321999185427611
0.044562788452629266,-0.054230190160284866
0.04328278507772011,-0.0546474717202797
0.04392885854207667,-0.057557845555379794
0.044847161409439056,-0.06257905919160146
0.043709691628507574,-0.0674626910377844
0.04219356389657449,-0.07143854056480407
0.04124204050508226,-0.07328051512388613
0.0392355616145102,-0.07373297739127453
0.03590532219191785,-0.07537707951004201
0.032638455823371056,-0.08028381092137829
0.03016543677805006,-0.09021391303076244
0.028004910010010296,-0.10418765912403338
0.025891289246123887,-0.11807248190530985
0.024181741161637692,-0.1250542775003676
0.022940125565246047,-0.12027470874974291
0.022128499161123406,-0.10978780797944497
0.021906585042028172,-0.10123152935122406
0.022267530183127823,-0.09348776804451994
0.023106498482775958,-0.08732162435328726
0.02430876273850642,-0.08765315269978739
0.0256621481039169,-0.09471115180727883
0.026932515957687118,-0.10379846579054387
0.02795560117904809,-0.11040016370584128
0.028748221426812232,-0.11281435314457487
0.029581640579207487,-0.11072222288922591
0.03107115382090051,-0.1067989163576542
0.03372431978974784,-0.10487710588795014
0.037211045149977154,-0.1035174435450163
0.04043713697661888,-0.1010893070223648
0.041317012024306904,-0.09993843554327748
0.03911575801333001,-0.10128503523952288
0.038411601309059684,-0.10562060245331022
0.0425910157083199,-0.11349578761385586
0.046235152442635555,-0.12216198917409726
0.045252096865210444,-0.12815202914757182
0.04446297584617428,-0.13061057028232617
0.046861138172397426,-0.12919800073384496
0.04938044044933414,-0.12460404644035149
0.05094620155660004,-0.11864146626038725
0.05317738274104992,-0.11122017965992033
0.0561627890749427,-0.10226655081788769
0.05932303894945636,-0.09344909200262315
0.06278328289293002,-0.08607525778612847
0.06655387136096581,-0.08132729131261783
0.07042003025436919,-0.08007302888051777
0.0742957317227508,-0.08092390807665985
0.0780409230110298,-0.0820136166039382
0.08133922878950192,-0.08309491590103221
0.08378234363336214,-0.08407369211168447
0.08482931041199569,-0.08520153958069766
0.08408464330510831,-0.08720970340750198
0.0817847652280899,-0.08933756335076662
0.07881309951888923,-0.09056467859407691
0.07689845863006542,-0.09085580689141926
0.07782804481867774,-0.08999329692702107
0.08193244744209979,-0.0880263653264401
0.0883614271899163,-0.08540059520824658
0.09480278634225223,-0.08204468747958864
0.0984701074692169,-0.07801144423641958
0.09892505137345958,-0.07393492533666629
0.09707557654679481,-0.07054941464444162
0.09487643517625022,-0.06884573608561467
0.09502087332821542,-0.06971802963596323
0.09763325949702072,-0.07304612123365563
0.10163896664751482,-0.07774261686081232
0.10603561751237832,-0.08149989389964932
0.10915394791227023,-0.08172041759593968
0.11112171212776341,-0.07757069185297687
0.11297408296050708,-0.06951414533677759
0.11492787258683028,-0.059540400043858854
0.11753917119960837,-0.05048468691198593
0.12064001516782229,-0.0430913888412815
0.12344040871930836,-0.0374312112389225
0.12586576315690365,-0.033824307193083145
0.1277711772431457,-0.03180606754609881
0.1290773113443573,-0.0318237840027126
0.1300563271776304,-0.03410538760779933
0.13070672863223814,-0.03659825826226316
0.13103446349010547,-0.03722290440286905
0.13119090500902209,-0.03500126438083657
0.13127622821347404,-0.029483016498280126
0.13154341831315566,-0.022187552617580795
0.13230126625043978,-0.015422410341952426
0.1337349717795869,-0.009643714319875084
0.13597318413617102,-0.005225230208815505
0.13899660699133715,-0.0030572397179721078
0.1426664902237791,-0.0033722529959127104
0.14688418271781642,-0.006877815593865007
0.15146055689748036,-0.013783956350775487
0.15604992606909507,-0.021955116896253755
0.16030358857164909,-0.02899867439801617
0.16391440194358253,-0.033848462500341195
0.16667745068337572,-0.03584057036439165
0.16866622456294375,-0.035600876626434144
0.17007132335342603,-0.03444337250419318
0.17095657893343835,-0.031951919650030615
0.17146034007541702,-0.027619390623053214
0.17184520969407605,-0.021857253983946574
0.17234865525467533,-0.014880561548754048
0.17325312134150359,-0.007740806405068996
0.1747478060198255,-0.0019290750320582698
0.1766751777516636,0.001987372987350448
0.17878879487726426,0.0036514890589095365
0.18100610149693772,0.0030144182553564895
0.1831997378234348,0.001094634250340764
0.18521998812177548,-7.120150686579902e-05
0.18696355268561513,0.0016321977200857768
0.1881860037062795,0.007106088327525027
0.18869435493698858,0.016042394843824238
0.18858379887096052,0.026358824085537788
0.18797402312447667,0.034835042057120486
0.1868619792669893,0.039264134014643806
0.18525319957497238,0.03850361137760818
0.183066525731404,0.0336982845895917
0.18017759736794825,0.02669338350634304
0.1766449976974841,0.01608351118690256
0.1725320523745816,0.0014682289593510552
0.1677763214449528,-0.01307209390534723
0.162366027869334,-0.023996103591853283
0.15634163231077786,-0.030206021393477563
0.14978420673977003,-0.031283206551984064
0.14294401264986928,-0.02954788832204279
0.13610566573456442,-0.028504539591123576
0.12939773230303986,-0.028417475866900344
0.12289765466412389,-0.02859229937683729
0.11661942689199258,-0.028021111343717823
0.11047707558411718,-0.02484585445183058
0.1044232535005551,-0.019976363926612162
0.09834059460686127,-0.015280958899108821
0.09191981353657054,-0.011293724549900401
0.08489078556746392,-0.008995735573812384
0.07718920190883086,-0.008443367686134552
0.06896758643879784,-0.008756474010196186
0.06078486109753066,-0.009838624083177814
0.053276657679760704,-0.011550621844391968
0.04655980370227237,-0.01401165714162069
0.040450460046599794,-0.018147860141510087
0.03441981856252289,-0.02523009807523307
0.027738298466409933,-0.0362508280741721
0.020269587833421046,-0.050675153030408704
0.012102203068800508,-0.06645900172189165
0.003284626294903224,-0.07988717082195759
-0.005912479529321607,-0.08806442865577527
-0.015465578108658876,-0.09369457019530268
-0.025339097197236496,-0.09932326266829132
-0.03498831149902382,-0.10098451793642503
-0.04390410256758931,-0.0966573088781578
-0.051833710365202755,-0.09112179705105607
-0.05869734393108781,-0.08775597964494992
-0.06499150209980112,-0.08565281279518354
-0.07144348415383385,-0.08519302939233289
-0.0783616436723926,-0.08862885463242491
-0.08606105825393161,-0.09559592285193952
-0.09494726230802998,-0.10183779555172273
-0.10508295732743932,-0.10338918282460856
-0.116257820030506,-0.09969505738629707
-0.12762585139080962,-0.09183648942007062
-0.13705817566518272,-0.08356544075384534
-0.142531793166847,-0.07981140318689296
-0.14388918647164753,-0.08085409325912876
-0.14251302093902904,-0.08494056101658479
-0.14204864008174592,-0.08972858338668116
-0.14661379887044187,-0.09152410115829242
-0.15665863850631573,-0.09018636096425328
-0.1703358355586993,-0.0871516121722976
-0.1835417981474625,-0.08259474141604509
-0.19110570358477433,-0.07758967272351822
-0.19257695988372758,-0.07190819937267179
-0.19008259529678076,-0.06460683112631982
-0.1869232660233107,-0.056770945373697576
-0.18771014333912853,-0.04962699360670241
-0.19259574688403647,-0.04445493473060206
-0.19937805324883665,-0.04325900764642923
-0.20609518462729523,-0.04740951133510254
-0.20969891328060672,-0.055489656568694944
-0.21030393242408837,-0.06016526026845045
-0.20989237575990455,-0.05592950218580806
-0.20941965382464797,-0.049806324214597054
-0.2105219214957105,-0.04769078221993041
-0.21326999621138076,-0.042155872700944924
-0.21652581575255342,-0.029832939681183484
-0.2202491997386147,-0.02030537403565825
-0.223963012336794,-0.019089493054074334
-0.22719819622024343,-0.020865125656155382
-0.22963175130696892,-0.022543023884008664
-0.22953084037018404,-0.02716900237725658
-0.22610956537156304,-0.03437565638280097
-0.22206550651003767,-0.03903911793623105
-0.21968517345778082,-0.038670765787963704
-0.21744792404797555,-0.035810764831883536
-0.21475891278926298,-0.033981706732259795
-0.2147913388922576,-0.03691858905187014
-0.21865421218669023,-0.04717043360044145
-0.22217600954312414,-0.05941263149226935
-0.2218772332194433,-0.06724499954896894
-0.21853005871512035,-0.07267577787108476
-0.21320123804272037,-0.0778875991543469
-0.20724219432416394,-0.08292456998300954
-0.20323282603650664,-0.08942901114216355
-0.20144358422097702,-0.09522589742082081
-0.20086409767546476,-0.09714802741122722
-0.20067445688558777,-0.09702950803258398
-0.19948247710677885,-0.09613219747459528
-0.19747580609422924,-0.09295622151527146
-0.19567683187081286,-0.08714662573714944
-0.19433951849103592,-0.07886503980258375
-0.19398742848128486,-0.06758927580915047
-0.19447133968909097,-0.053250708464312214
-0.19501991738391508,-0.036199623165132984
-0.19542104481446293,-0.016927815785909864
-0.19538071891822253,0.003937238514963777
-0.1947226231274388,0.02612682586772883
-0.19363226735986871,0.04959144294587612
-0.19212685383749156,0.07438115970304705
-0.19029727585996895,0.10072597377392031
-0.18834079042885013,0.12863496686348705
-0.1864732254648711,0.15809489101088103
-0.18518565648810875,0.18933907950020365
-0.18495667393755058,0.22237824479699575
-0.18592348123116778,0.2567924093970636
-0.18790787118132646,0.29159987838762225
-0.19015182232170813,0.3247503353788676
-0.19167573634829935,0.35386918687697244
-0.19201861766378076,0.37739922480569177
-0.19090302070242338,0.3941461516977039
-0.18822046979246979,0.4034490262399391
-0.18418323965614808,0.4060188099820409
-0.17878671227211326,0.40397999543479013
-0.17228637942932462,0.3971424176077097
-0.1657713037590629,0.37776590642112545
-0.16036461865689022,0.3389428983890888
-0.15675540586996348,0.28438141278737844
-0.15529858310738673,0.2189737914231206
-0.15544403158394762,0.14444756808833614
-0.15623786107289564,0.06539793328837842
-0.15743115129210675,-0.014423670976847972
-0.1586949681181867,-0.09448377050373666
-0.15931355742150172,-0.1758411778171908
-0.1588502349799289,-0.259280169647664
-0.15686956883766637,-0.34052557992462873
-0.153391595456697,-0.41395684566439733
-0.1498524085140079,-0.476504423629619
-0.1477901450824598,-0.5243005700777994
-0.14741721860071594,-0.5544671582296083
-0.1482317618106403,-0.5672046726261571
-0.1485425243992279,-0.5650901511357034
-0.14626133909006367,-0.5517396768750376
-0.1414225665159487,-0.5288470357336826
-0.13506261617318857,-0.4981025340068121
-0.12872578812059424,-0.4627787895025541
-0.1245658712330728,-0.4255261674741632
-0.12291227497322334,-0.38913879527899026
-0.12316449659498986,-0.35575726746145164
-0.12487133992307882,-0.32420470402897567
-0.1270143593850929,-0.29255439684407414
-0.12953729549621465,-0.26056596931788417
-0.13280341135894247,-0.2282841646464953
-0.13630554008443213,-0.19711742526797268
-0.139675297588929,-0.16918883881158173
-0.14238244875307104,-0.14406007406091278
-0.1437467435062911,-0.1211694261322278
-0.14398022117678924,-0.10158177362265094
-0.1434811050904124,-0.08577413905681588
-0.14231184641658065,-0.07413016030842912
-0.14075422436526266,-0.0667522987558279
-0.13908973759821344,-0.06143167718056016
-0.1374776809428987,-0.055620708553442054
-0.13628403886067256,-0.048616315169116596
-0.1356872544853454,-0.04007183682898862
-0.13529125560615243,-0.03026083678182998
-0.13458179815551308,-0.020223665801344198
-0.13321505290307645,-0.009748211022489734
-0.13074310233563538,0.0014248909074362486
-0.1267112812173402,0.012436977175063434
-0.12091756912884766,0.022572528103841565
-0.11342365168054401,0.030917812788969226
-0.10493069998541181,0.03646149793063355
-0.09730371362404579,0.03928199581721048
-0.09251341159288459,0.03978395463315782
-0.09125885131195988,0.03805686648257641
-0.09334113957649084,0.034703856906215386
-0.0972280472732175,0.03084957070195545
-0.10075364172355215,0.0275513061015977
-0.10343463992505922,0.025690098435134288
-0.10530815764801496,0.025614536233414434
-0.10632982679745094,0.026417015258784683
-0.1070514028267828,0.02698333974285633
-0.107117942494076,0.02750743512869864
-0.10618741026665546,0.02818503241468927
-0.10545017520283205,0.02853507922956852
-0.10597183458563192,0.028461648914299333
-0.10809970326302897,0.027891720270777593
-0.11175884760101888,0.026617492947911006
-0.11527316431351058,0.024852681959091984
-0.11657947058676428,0.02305523692109493
-0.11539642454084803,0.021926468455555754
-0.11204153215895354,0.02208609852587873
-0.10735472337953782,0.02328170445115479
-0.10275044379217864,0.025224655029940986
-0.0981047214585167,0.028493254271657897
-0.09276777939304183,0.03344042040469011
-0.08660069513409349,0.03973114437837805
-0.07918888361081221,0.04709233829938873
-0.07094488173309692,0.05521274300697819
-0.06284177739289418,0.06351749299889654
-0.05537969317898476,0.07147638198658733
-0.049189102841722725,0.07856914176119663
-0.044691277135722914,0.08419795634059557
-0.041917047245046524,0.08792744954085752
-0.041001681075007956,0.08963018084833962
-0.041912570098948686,0.08937820027747448
-0.04446579338304148,0.08739362822249028
-0.04835467822701953,0.08423028741646597
-0.052845199892207366,0.08084889544930701
-0.05710861325777381,0.07828153255894153
-0.06056002004855185,0.07728787345862113
-0.0628252677559071,0.07824799313212645
-0.06404287560387482,0.08079902446585857
-0.06458652079661441,0.08426582807988074
-0.06442584404763166,0.08853232196269997
-0.06355311768808374,0.09347216091386724
-0.062131399907091676,0.09875427729253815
-0.060292009964264,0.10415382949547668
-0.05854313668194744,0.10901810794721792
-0.05749233653465952,0.11269786383123342
-0.0573891110157678,0.11525083125796678
-0.05830104675464656,0.11688688978117308
-0.05989804812722653,0.11782661110052378
-0.061175239711956646,0.11868555395033209
-0.06041244464157715,0.12031532692621086
-0.05721145630404163,0.12342349558207455
-0.055482597218127434,0.12824710334308
-0.0580116769355685,0.13423241630332547
-0.059954597961724365,0.13951130432788775
-0.05767455175212813,0.14243901024215846
-0.055803916219082275,0.143979943069308
-0.05726228513754695,0.1471864690143954
-0.058714635860753935,0.1577600942218066
-0.058619009323454686,0.17923511291235308
-0.05859843389808909,0.20392882589227088
-0.05872455154428104,0.22209511071076976
-0.057949689379862376,0.2313722534705578
-0.05613721789566376,0.2315522861953726
-0.05349191494006501,0.22954371509047578
-0.050249037415119095,0.2342801026990125
-0.047284094911502636,0.24071996065264378
-0.04555978941551874,0.24398437492899183
-0.04519991687711707,0.25070188257898474
-0.04575746695977622,0.26328213166729864
-0.0460322576010935,0.27671417171312224
-0.04498492888559616,0.288101936649759
-0.0438463813641011,0.29618070158908927
-0.04369817943077107,0.2996950927611179
-0.04288206987882853,0.3016041520508452
-0.04042178291659995,0.30576530389196677
-0.037855606503984715,0.3108406730144495
-0.03616384368137552,0.3150361985482933
-0.034909553700564894,0.31816481524215495
-0.03425172042425873,0.3189476214420541
-0.03505462776536552,0.3178513946322788
-0.03747792884731363,0.31647039382016384
-0.04066925570407485,0.31481825254388307
-0.04385956094249331,0.31314143797472954
-0.04704339713828693,0.31177330571383627
-0.05035302651595631,0.3103456323718607
-0.05413946933952344,0.30881709312806926
-0.05885401530678335,0.3071726062586361
-0.06393488460875867,0.3052335951819728
-0.06822028767932563,0.3029470988831226
-0.0702809045091033,0.30011614067410197
-0.0686514641921915,0.2964725895495392
-0.06325225781805842,0.2917750317567838
-0.05521153510300329,0.2858046941798826
-0.046747871933448516,0.2785599861210086
-0.04046565454677434,0.27011464410522085
-0.037003772008997335,0.26042861119239136
-0.03563431816270639,0.24949213908364884
-0.03444479981361233,0.23729753111498936
-0.030965650906427628,0.22396817195892374
-0.025419072713311786,0.2101260737276062
-0.01949127581012647,0.19680136166783288
-0.01542617022247265,0.18542665199176267
-0.01601106313823738,0.177356814156089
-0.021146108185779666,0.17285435661602563
-0.028944920759609735,0.17111621586107548
-0.037113743164178044,0.1699949856686483
-0.04267386693883657,0.16690379754415907
-0.04515901856215927,0.160992520251569
-0.04583614861882215,0.1524564521754838
-0.04635147231321347,0.14250735649435786
-0.048853183120612396,0.1329789165711107
